
1504618559.41708, 0.23931623931623933
1504618559.422396, 0.2454212454212454
1504618559.4277015, 0.231990231990232
1504618559.43301, 0.24786324786324784
1504618559.4383113, 0.27594627594627597
1504618559.4436164, 0.2722832722832723
1504618559.4489107, 0.2612942612942613
1504618559.4542272, 0.2979242979242979
1504618559.4595397, 0.3137973137973138
1504618559.4648771, 0.3089133089133089
1504618559.4702106, 0.304029304029304
1504618559.4755135, 0.32967032967032966
1504618559.4808247, 0.3504273504273504
1504618559.486123, 0.34676434676434675
1504618559.4914184, 0.34798534798534797
1504618559.4967184, 0.36996336996337
1504618559.50202, 0.38583638583638585
1504618559.507322, 0.37484737484737485
1504618559.5126178, 0.3821733821733822
1504618559.5179906, 0.4053724053724054
1504618559.5232995, 0.4065934065934066
1504618559.528599, 0.38705738705738707
1504618559.5339048, 0.38705738705738707
1504618559.5391989, 0.39194139194139194
1504618559.5444994, 0.36874236874236876
1504618559.5498047, 0.326007326007326
1504618559.5551057, 0.3162393162393162
1504618559.5604076, 0.30036630036630035
1504618559.5657268, 0.2600732600732601
1504618559.5710936, 0.22832722832722832
1504618559.5764062, 0.22832722832722832
1504618559.5817146, 0.21123321123321126
1504618559.5870185, 0.17826617826617824
1504618559.5923147, 0.16849816849816848
1504618559.5976126, 0.18315018315018317
1504618559.6029892, 0.17704517704517703
1504618559.6082985, 0.14652014652014653
1504618559.614564, 0.16117216117216118
1504618559.6198883, 0.17338217338217338
1504618559.6251886, 0.1575091575091575
1504618559.6304874, 0.14285714285714285
1504618559.635783, 0.16605616605616605
1504618559.6410782, 0.18315018315018317
1504618559.6463742, 0.16727716727716727
1504618559.6516666, 0.1575091575091575
1504618559.656967, 0.18192918192918195
1504618559.6622758, 0.17704517704517703
1504618559.6676006, 0.16117216117216118
1504618559.673001, 0.16483516483516483
1504618559.678304, 0.18437118437118438
1504618559.6836252, 0.18803418803418803
1504618559.6889207, 0.16605616605616605
1504618559.6942194, 0.1697191697191697
1504618559.6995149, 0.18803418803418803
1504618559.7048125, 0.17948717948717946
1504618559.7101104, 0.1514041514041514
1504618559.7154582, 0.17094017094017094
1504618559.7207665, 0.17948717948717946
1504618559.7260847, 0.17216117216117216
1504618559.7313857, 0.14896214896214896
1504618559.7366803, 0.1758241758241758
1504618559.7419758, 0.17338217338217338
1504618559.7472727, 0.14896214896214896
1504618559.7525668, 0.14652014652014653
1504618559.757867, 0.1697191697191697
1504618559.7631721, 0.1575091575091575
1504618559.7685013, 0.1440781440781441
1504618559.7738297, 0.14652014652014653
1504618559.779127, 0.16727716727716727
1504618559.7844427, 0.15506715506715507
1504618559.7897418, 0.14896214896214896
1504618559.7950401, 0.1697191697191697
1504618559.8003428, 0.18437118437118438
1504618559.805643, 0.17216117216117216
1504618559.810937, 0.16727716727716727
1504618559.8162708, 0.1978021978021978
1504618559.821578, 0.20512820512820512
1504618559.826877, 0.1916971916971917
1504618559.8321729, 0.20757020757020755
1504618559.8374693, 0.2148962148962149
1504618559.8428395, 0.20879120879120877
1504618559.848136, 0.18681318681318682
1504618559.85344, 0.1746031746031746
1504618559.8587358, 0.17216117216117216
1504618559.8640358, 0.14163614163614163
1504618559.8693647, 0.115995115995116
1504618559.8747168, 0.12454212454212454
1504618559.8800216, 0.13675213675213677
1504618559.8853567, 0.11233211233211234
1504618559.890656, 0.0989010989010989
1504618559.895953, 0.1221001221001221
1504618559.9012482, 0.12332112332112331
1504618559.9065459, 0.10500610500610502
1504618559.9118423, 0.10256410256410256
1504618559.9171906, 0.12576312576312576
1504618559.9224985, 0.10378510378510378
1504618559.927797, 0.0695970695970696
1504618559.9330988, 0.10256410256410256
1504618559.9383938, 0.2600732600732601
1504618559.943692, 0.4774114774114774
1504618559.948988, 0.7264957264957266
1504618559.9542859, 0.9743589743589743
1504618559.959583, 1.0488400488400489
1504618559.9648895, 0.7728937728937729
1504618559.97021, 0.380952380952381
1504618559.9755294, 0.2710622710622711
1504618559.9808326, 0.2588522588522589
1504618559.9861667, 0.231990231990232
1504618559.9914649, 0.21611721611721613
1504618559.9967632, 0.22222222222222224
1504618560.0030935, 0.21001221001221004
1504618560.0084307, 0.17094017094017094
1504618560.0138202, 0.1746031746031746
1504618560.0197265, 0.18925518925518925
1504618560.0251591, 0.1746031746031746
1504618560.0304792, 0.15995115995115994
1504618560.0357804, 0.17948717948717946
1504618560.0410738, 0.18803418803418803
1504618560.046371, 0.16849816849816848
1504618560.051666, 0.17216117216117216
1504618560.0569634, 0.199023199023199
1504618560.0622907, 0.2039072039072039
1504618560.067602, 0.19536019536019536
1504618560.0730026, 0.1978021978021978
1504618560.0783033, 0.2197802197802198
1504618560.0836275, 0.22100122100122102
1504618560.0890014, 0.21001221001221004
1504618560.0943103, 0.22344322344322345
1504618560.0996065, 0.2490842490842491
1504618560.1049008, 0.2442002442002442
1504618560.1101923, 0.23809523809523808
1504618560.1155124, 0.2588522588522589
1504618560.1208434, 0.2771672771672772
1504618560.126149, 0.2796092796092796
1504618560.1314428, 0.2698412698412699
1504618560.1367452, 0.30036630036630035
1504618560.1420445, 0.31135531135531136
1504618560.1473448, 0.3052503052503052
1504618560.1526384, 0.315018315018315
1504618560.157935, 0.34676434676434675
1504618560.1632624, 0.3431013431013431
1504618560.1685653, 0.33455433455433453
1504618560.173938, 0.36141636141636146
1504618560.1792467, 0.36874236874236876
1504618560.184557, 0.36019536019536014
1504618560.1898541, 0.34676434676434675
1504618560.195151, 0.36752136752136755
1504618560.2004445, 0.3724053724053724
1504618560.2057562, 0.34676434676434675
1504618560.211055, 0.326007326007326
1504618560.2163782, 0.32722832722832723
1504618560.2217073, 0.304029304029304
1504618560.227015, 0.2661782661782662
1504618560.2323115, 0.23809523809523808
1504618560.2376122, 0.23321123321123322
1504618560.2429614, 0.20634920634920634
1504618560.2482572, 0.16849816849816848
1504618560.253559, 0.15995115995115994
1504618560.2588515, 0.1623931623931624
1504618560.2641737, 0.14041514041514042
1504618560.2694778, 0.11965811965811966
1504618560.2748113, 0.12698412698412698
1504618560.280112, 0.1330891330891331
1504618560.2854204, 0.11477411477411478
1504618560.2907186, 0.10134310134310134
1504618560.2960155, 0.12332112332112331
1504618560.3013096, 0.1282051282051282
1504618560.3066072, 0.115995115995116
1504618560.311901, 0.11233211233211234
1504618560.3172295, 0.13431013431013433
1504618560.3225539, 0.13064713064713065
1504618560.3278618, 0.115995115995116
1504618560.3331668, 0.11965811965811966
1504618560.338475, 0.1391941391941392
1504618560.3437781, 0.13186813186813187
1504618560.3490741, 0.1098901098901099
1504618560.3543692, 0.1221001221001221
1504618560.3596647, 0.13431013431013433
1504618560.3649824, 0.12698412698412698
1504618560.3702865, 0.1098901098901099
1504618560.3756201, 0.1282051282051282
1504618560.3809202, 0.1330891330891331
1504618560.386233, 0.115995115995116
1504618560.3915312, 0.10500610500610502
1504618560.3968277, 0.12087912087912088
1504618560.402121, 0.11843711843711843
1504618560.4074187, 0.10012210012210013
1504618560.4127126, 0.10012210012210013
1504618560.4180367, 0.115995115995116
1504618560.423366, 0.10622710622710624
1504618560.4286666, 0.08302808302808302
1504618560.4339645, 0.09401709401709402
1504618560.4392643, 0.10744810744810745
1504618560.4445617, 0.0927960927960928
1504618560.4498594, 0.0757020757020757
1504618560.4551547, 0.0879120879120879
1504618560.460448, 0.0989010989010989
1504618560.4657612, 0.08302808302808302
1504618560.4710639, 0.07326007326007326
1504618560.476433, 0.08913308913308912
1504618560.4817362, 0.09035409035409037
1504618560.4870572, 0.07081807081807082
1504618560.4923544, 0.07081807081807082
1504618560.497658, 0.09523809523809525
1504618560.5029616, 0.10256410256410256
1504618560.508259, 0.09157509157509158
1504618560.5135543, 0.10256410256410256
1504618560.5188735, 0.12698412698412698
1504618560.5242083, 0.1221001221001221
1504618560.5295115, 0.11233211233211234
1504618560.5348117, 0.13064713064713065
1504618560.5401084, 0.14774114774114774
1504618560.545408, 0.14041514041514042
1504618560.5507042, 0.12454212454212454
1504618560.5560007, 0.1391941391941392
1504618560.561296, 0.13186813186813187
1504618560.5666623, 0.10256410256410256
1504618560.5720434, 0.07692307692307693
1504618560.5773635, 0.07936507936507936
1504618560.582664, 0.06593406593406594
1504618560.5879672, 0.040293040293040296
1504618560.5932643, 0.04395604395604395
1504618560.5985577, 0.05860805860805861
1504618560.6038625, 0.05128205128205128
1504618560.6091561, 0.030525030525030524
1504618560.6144507, 0.04517704517704518
1504618560.6197712, 0.05494505494505495
1504618560.6251, 0.0463980463980464
1504618560.6304028, 0.028083028083028084
1504618560.6356995, 0.030525030525030524
1504618560.6409965, 0.03663003663003663
1504618560.6462934, 0.0927960927960928
1504618560.6515896, 0.2515262515262515
1504618560.6569028, 0.5262515262515263
1504618560.662203, 0.8034188034188035
1504618560.6676636, 0.9743589743589743
1504618560.6729906, 0.8632478632478633
1504618560.6783047, 0.5982905982905983
1504618560.6836133, 0.3211233211233211
1504618560.6889212, 0.23809523809523808
1504618560.694221, 0.21855921855921856
1504618560.6995182, 0.20879120879120877
1504618560.7048185, 0.1746031746031746
1504618560.710114, 0.13675213675213677
1504618560.7154112, 0.13797313797313798
1504618560.720737, 0.13553113553113555
1504618560.7260716, 0.115995115995116
1504618560.731373, 0.10378510378510378
1504618560.736671, 0.1221001221001221
1504618560.7419615, 0.1221001221001221
1504618560.7472599, 0.10500610500610502
1504618560.7525575, 0.1098901098901099
1504618560.757856, 0.12942612942612944
1504618560.7631521, 0.12942612942612944
1504618560.768668, 0.11477411477411478
1504618560.7739842, 0.1282051282051282
1504618560.7792983, 0.14652014652014653
1504618560.7846024, 0.1440781440781441
1504618560.7899075, 0.1330891330891331
1504618560.79521, 0.1514041514041514
1504618560.8005054, 0.16849816849816848
1504618560.8058033, 0.15995115995115994
1504618560.8110976, 0.15873015873015872
1504618560.816394, 0.18192918192918195
1504618560.8217225, 0.19291819291819293
1504618560.8270526, 0.18315018315018317
1504618560.8323574, 0.18925518925518925
1504618560.8376594, 0.21733821733821734
1504618560.8431354, 0.22100122100122102
1504618560.8484476, 0.21123321123321126
1504618560.8537521, 0.2258852258852259
1504618560.859051, 0.2515262515262515
1504618560.8643491, 0.2503052503052503
1504618560.8696675, 0.2442002442002442
1504618560.8749814, 0.2612942612942613
1504618560.8803234, 0.27594627594627597
1504618560.8856354, 0.2796092796092796
1504618560.8909366, 0.2661782661782662
1504618560.896235, 0.2881562881562882
1504618560.9015303, 0.29304029304029305
1504618560.9068274, 0.2783882783882784
1504618560.912122, 0.27594627594627597
1504618560.917419, 0.2881562881562882
1504618560.9228115, 0.2783882783882784
1504618560.9281476, 0.2503052503052503
1504618560.9334512, 0.23931623931623933
1504618560.9387512, 0.231990231990232
1504618560.9440484, 0.20512820512820512
1504618560.949344, 0.16361416361416362
1504618560.9546394, 0.1575091575091575
1504618560.9599388, 0.15018315018315018
1504618560.9652352, 0.12332112332112331
1504618560.9706645, 0.0989010989010989
1504618560.9759777, 0.10256410256410256
1504618560.9812918, 0.10134310134310134
1504618560.9866018, 0.07936507936507936
1504618560.9918978, 0.07203907203907205
1504618560.997197, 0.08913308913308912
1504618561.002493, 0.08669108669108669
1504618561.0078185, 0.0695970695970696
1504618561.0131981, 0.07448107448107448
1504618561.018504, 0.09401709401709402
1504618561.0240164, 0.0879120879120879
1504618561.0293572, 0.07448107448107448
1504618561.034661, 0.08669108669108669
1504618561.039958, 0.10134310134310134
1504618561.045256, 0.09035409035409037
1504618561.0505488, 0.07814407814407814
1504618561.0558481, 0.09645909645909646
1504618561.0611508, 0.10134310134310134
1504618561.0664475, 0.0879120879120879
1504618561.0717833, 0.08424908424908424
1504618561.0770993, 0.10256410256410256
1504618561.0824332, 0.09768009768009768
1504618561.0877519, 0.08058608058608059
1504618561.0930638, 0.08547008547008547
1504618561.09836, 0.10012210012210013
1504618561.1036568, 0.0927960927960928
1504618561.1089535, 0.07326007326007326
1504618561.114251, 0.08424908424908424
1504618561.1195447, 0.09401709401709402
1504618561.1248627, 0.08302808302808302
1504618561.1301885, 0.06593406593406594
1504618561.135494, 0.07692307692307693
1504618561.1407878, 0.08424908424908424
1504618561.146087, 0.06715506715506717
1504618561.1513808, 0.05982905982905983
1504618561.1566782, 0.07326007326007326
1504618561.1619735, 0.07448107448107448
1504618561.1672704, 0.05616605616605617
1504618561.1728163, 0.05982905982905983
1504618561.1781297, 0.07448107448107448
1504618561.1834502, 0.06471306471306472
1504618561.1887624, 0.04761904761904762
1504618561.1940658, 0.05616605616605617
1504618561.199365, 0.0695970695970696
1504618561.2046685, 0.05860805860805861
1504618561.2099679, 0.0463980463980464
1504618561.2152655, 0.05982905982905983
1504618561.2205617, 0.08058608058608059
1504618561.2258823, 0.07936507936507936
1504618561.231223, 0.08180708180708181
1504618561.2365274, 0.10378510378510378
1504618561.2418268, 0.1098901098901099
1504618561.2471402, 0.0989010989010989
1504618561.2524364, 0.10378510378510378
1504618561.257737, 0.1330891330891331
1504618561.2630675, 0.1330891330891331
1504618561.2683651, 0.1221001221001221
1504618561.2736824, 0.12698412698412698
1504618561.2790205, 0.1330891330891331
1504618561.2843497, 0.115995115995116
1504618561.2896562, 0.07936507936507936
1504618561.2949862, 0.0695970695970696
1504618561.30029, 0.06227106227106227
1504618561.3056042, 0.04517704517704518
1504618561.310915, 0.030525030525030524
1504618561.316214, 0.0463980463980464
1504618561.3215106, 0.04517704517704518
1504618561.3268468, 0.030525030525030524
1504618561.332174, 0.026862026862026864
1504618561.3374789, 0.042735042735042736
1504618561.3428519, 0.03907203907203907
1504618561.3481472, 0.019536019536019536
1504618561.3534482, 0.02564102564102564
1504618561.3587449, 0.026862026862026864
1504618561.3640432, 0.03418803418803419
1504618561.3693457, 0.11965811965811966
1504618561.3746643, 0.326007326007326
1504618561.3799748, 0.5934065934065934
1504618561.3853412, 0.8461538461538463
1504618561.3906603, 0.9597069597069597
1504618561.3959696, 0.8388278388278387
1504618561.4012895, 0.540903540903541
1504618561.4065888, 0.31746031746031744
1504618561.4118865, 0.2503052503052503
1504618561.4172, 0.23443223443223443
1504618561.422497, 0.19658119658119658
1504618561.427824, 0.15506715506715507
1504618561.4331691, 0.13431013431013433
1504618561.4384725, 0.13553113553113555
1504618561.4437706, 0.11721611721611722
1504618561.4490855, 0.09401709401709402
1504618561.4543998, 0.10256410256410256
1504618561.4596977, 0.11233211233211234
1504618561.4650137, 0.10500610500610502
1504618561.470322, 0.09401709401709402
1504618561.4756436, 0.11477411477411478
1504618561.4809806, 0.11965811965811966
1504618561.486313, 0.10866910866910867
1504618561.4916213, 0.10744810744810745
1504618561.4969413, 0.12698412698412698
1504618561.5022562, 0.13186813186813187
1504618561.507554, 0.11721611721611722
1504618561.5129328, 0.12698412698412698
1504618561.5182488, 0.14896214896214896
1504618561.523555, 0.14896214896214896
1504618561.5289106, 0.14041514041514042
1504618561.5342498, 0.15384615384615385
1504618561.539551, 0.1746031746031746
1504618561.544866, 0.17094017094017094
1504618561.550178, 0.16605616605616605
1504618561.5554774, 0.18803418803418803
1504618561.560778, 0.2039072039072039
1504618561.566103, 0.19658119658119658
1504618561.5714056, 0.20024420024420025
1504618561.5767293, 0.22954822954822957
1504618561.582048, 0.23443223443223443
1504618561.5874867, 0.22832722832722832
1504618561.592953, 0.23931623931623933
1504618561.5982757, 0.2625152625152625
1504618561.6035752, 0.2625152625152625
1504618561.60889, 0.25274725274725274
1504618561.6142044, 0.2673992673992674
1504618561.6195023, 0.28205128205128205
1504618561.6250744, 0.2796092796092796
1504618561.6304305, 0.2661782661782662
1504618561.6357446, 0.2796092796092796
1504618561.641061, 0.2771672771672772
1504618561.6463628, 0.2564102564102564
1504618561.6516602, 0.23565323565323565
1504618561.6569746, 0.23443223443223443
1504618561.6622891, 0.21123321123321126
1504618561.6675887, 0.17216117216117216
1504618561.6729686, 0.15506715506715507
1504618561.6783075, 0.1514041514041514
1504618561.683625, 0.12942612942612944
1504618561.6889603, 0.10012210012210013
1504618561.6942916, 0.09645909645909646
1504618561.6995933, 0.10134310134310134
1504618561.704907, 0.08302808302808302
1504618561.7102206, 0.06593406593406594
1504618561.7155225, 0.07692307692307693
1504618561.720819, 0.08424908424908424
1504618561.726161, 0.0695970695970696
1504618561.731495, 0.06349206349206349
1504618561.736801, 0.08058608058608059
1504618561.7421134, 0.08058608058608059
1504618561.747414, 0.06471306471306472
1504618561.7527122, 0.06837606837606838
1504618561.7580283, 0.09035409035409037
1504618561.7633324, 0.08424908424908424
1504618561.76863, 0.07081807081807082
1504618561.7739491, 0.08058608058608059
1504618561.7792647, 0.09768009768009768
1504618561.7845743, 0.08669108669108669
1504618561.7899404, 0.0757020757020757
1504618561.7952507, 0.08669108669108669
1504618561.8005497, 0.09401709401709402
1504618561.805871, 0.08180708180708181
1504618561.8111682, 0.07326007326007326
1504618561.8164668, 0.0927960927960928
1504618561.8217642, 0.09157509157509158
1504618561.8270788, 0.07692307692307693
1504618561.8324158, 0.07448107448107448
1504618561.8377259, 0.09157509157509158
1504618561.8430316, 0.08424908424908424
1504618561.8483286, 0.06471306471306472
1504618561.853634, 0.07203907203907205
1504618561.8589287, 0.08302808302808302
1504618561.864227, 0.07326007326007326
1504618561.8695238, 0.05616605616605617
1504618561.8748364, 0.0695970695970696
1504618561.8801594, 0.07692307692307693
1504618561.8854718, 0.06593406593406594
1504618561.8908212, 0.05250305250305251
1504618561.8961349, 0.06715506715506717
1504618561.9014344, 0.07081807081807082
1504618561.906734, 0.05494505494505495
1504618561.9120312, 0.05372405372405373
1504618561.9173298, 0.06837606837606838
1504618561.9226277, 0.06593406593406594
1504618561.9279413, 0.04761904761904762
1504618561.933304, 0.05372405372405373
1504618561.9386106, 0.0695970695970696
1504618561.9439108, 0.06105006105006105
1504618561.9492068, 0.050061050061050064
1504618561.954506, 0.07326007326007326
1504618561.9598036, 0.09401709401709402
1504618561.965108, 0.08913308913308912
1504618561.9704053, 0.08058608058608059
1504618561.975704, 0.10012210012210013
1504618561.9810255, 0.115995115995116
1504618561.9863315, 0.11721611721611722
1504618561.991681, 0.11843711843711843
1504618561.9969904, 0.13553113553113555
1504618562.002289, 0.13064713064713065
1504618562.0075893, 0.11233211233211234
1504618562.0129619, 0.10622710622710624
1504618562.0182595, 0.10744810744810745
1504618562.0235567, 0.07936507936507936
1504618562.0288653, 0.050061050061050064
1504618562.0342016, 0.05128205128205128
1504618562.0395086, 0.05738705738705739
1504618562.0448153, 0.04884004884004884
1504618562.0501127, 0.03418803418803419
1504618562.0554097, 0.04884004884004884
1504618562.060705, 0.05372405372405373
1504618562.0660036, 0.04151404151404151
1504618562.0713007, 0.03540903540903541
1504618562.0765982, 0.05372405372405373
1504618562.081916, 0.05128205128205128
1504618562.0872295, 0.026862026862026864
1504618562.0925548, 0.0231990231990232
1504618562.0978613, 0.09401709401709402
1504618562.103175, 0.24053724053724054
1504618562.1084735, 0.45665445665445664
1504618562.1137753, 0.7509157509157509
1504618562.1190934, 0.9816849816849816
1504618562.1243942, 0.9072039072039072
1504618562.129704, 0.6776556776556776
1504618562.1350725, 0.3772893772893773
1504618562.1403785, 0.2967032967032967
1504618562.1456792, 0.24664224664224663
1504618562.1510077, 0.20879120879120877
1504618562.1563063, 0.19536019536019536
1504618562.1616056, 0.1697191697191697
1504618562.1669192, 0.1391941391941392
1504618562.1722178, 0.1282051282051282
1504618562.1777601, 0.1391941391941392
1504618562.1831067, 0.1282051282051282
1504618562.1884274, 0.11111111111111112
1504618562.1937506, 0.11965811965811966
1504618562.19908, 0.13553113553113555
1504618562.2043848, 0.1282051282051282
1504618562.2096846, 0.115995115995116
1504618562.2150195, 0.1330891330891331
1504618562.2203205, 0.14652014652014653
1504618562.225623, 0.14041514041514042
1504618562.2309644, 0.13431013431013433
1504618562.2363083, 0.15506715506715507
1504618562.241616, 0.1623931623931624
1504618562.2469356, 0.15018315018315018
1504618562.2522306, 0.1575091575091575
1504618562.2575324, 0.17948717948717946
1504618562.2629032, 0.18437118437118438
1504618562.2682045, 0.17338217338217338
1504618562.2735062, 0.18925518925518925
1504618562.2788222, 0.21123321123321126
1504618562.2841458, 0.21123321123321126
1504618562.2894785, 0.21123321123321126
1504618562.2948236, 0.2271062271062271
1504618562.3001432, 0.24664224664224663
1504618562.305444, 0.24175824175824176
1504618562.3107429, 0.24175824175824176
1504618562.3160448, 0.26862026862026867
1504618562.3213453, 0.2796092796092796
1504618562.3266482, 0.2710622710622711
1504618562.3319595, 0.27594627594627597
1504618562.3373194, 0.30158730158730157
1504618562.342628, 0.3028083028083028
1504618562.3479307, 0.2967032967032967
1504618562.3532472, 0.3076923076923077
1504618562.358545, 0.3247863247863248
1504618562.3638523, 0.3211233211233211
1504618562.3691695, 0.30158730158730157
1504618562.3744705, 0.3089133089133089
1504618562.3797827, 0.3076923076923077
1504618562.385111, 0.28205128205128205
1504618562.3904386, 0.24664224664224663
1504618562.3957572, 0.23809523809523808
1504618562.4010713, 0.21733821733821734
1504618562.4063702, 0.18070818070818073
1504618562.4116662, 0.16117216117216118
1504618562.4169815, 0.15995115995115994
1504618562.4222977, 0.1440781440781441
1504618562.4275968, 0.11355311355311355
1504618562.4330056, 0.1098901098901099
1504618562.438355, 0.11965811965811966
1504618562.4436717, 0.10866910866910867
1504618562.4489868, 0.0879120879120879
1504618562.4543037, 0.10134310134310134
1504618562.459601, 0.11843711843711843
1504618562.4649184, 0.10012210012210013
1504618562.4702306, 0.09401709401709402
1504618562.4755292, 0.10866910866910867
1504618562.480927, 0.11843711843711843
1504618562.4862583, 0.10500610500610502
1504618562.49157, 0.10256410256410256
1504618562.4968998, 0.1221001221001221
1504618562.5022144, 0.11843711843711843
1504618562.5075164, 0.10622710622710624
1504618562.5128863, 0.10866910866910867
1504618562.5182002, 0.12698412698412698
1504618562.5235035, 0.11843711843711843
1504618562.5287993, 0.10256410256410256
1504618562.5341277, 0.11233211233211234
1504618562.5394564, 0.12454212454212454
1504618562.5447645, 0.11111111111111112
1504618562.5500767, 0.0989010989010989
1504618562.555379, 0.115995115995116
1504618562.5606759, 0.12087912087912088
1504618562.565991, 0.10866910866910867
1504618562.571287, 0.0989010989010989
1504618562.5765858, 0.11233211233211234
1504618562.5819116, 0.10744810744810745
1504618562.587227, 0.09401709401709402
1504618562.5925481, 0.09645909645909646
1504618562.5978854, 0.11355311355311355
1504618562.603199, 0.10378510378510378
1504618562.6085129, 0.08424908424908424
1504618562.613815, 0.0927960927960928
1504618562.6191123, 0.10256410256410256
1504618562.6244104, 0.0989010989010989
1504618562.6297045, 0.07936507936507936
1504618562.6350174, 0.09035409035409037
1504618562.6403444, 0.09768009768009768
1504618562.6456523, 0.08547008547008547
1504618562.6509538, 0.07692307692307693
1504618562.656254, 0.09157509157509158
1504618562.6615527, 0.10134310134310134
1504618562.6668491, 0.09768009768009768
1504618562.6721463, 0.10134310134310134
1504618562.6774452, 0.12332112332112331
1504618562.6828473, 0.11965811965811966
1504618562.688162, 0.10866910866910867
1504618562.6934876, 0.12087912087912088
1504618562.6988053, 0.15018315018315018
1504618562.7041087, 0.1514041514041514
1504618562.709409, 0.13553113553113555
1504618562.714708, 0.14652014652014653
1504618562.7200031, 0.1562881562881563
1504618562.725314, 0.13186813186813187
1504618562.7307086, 0.1098901098901099
1504618562.7360127, 0.10256410256410256
1504618562.741353, 0.10012210012210013
1504618562.7466617, 0.07081807081807082
1504618562.75196, 0.06471306471306472
1504618562.7572756, 0.08424908424908424
1504618562.7625747, 0.0757020757020757
1504618562.7678742, 0.06105006105006105
1504618562.7731874, 0.06837606837606838
1504618562.7784839, 0.08424908424908424
1504618562.783798, 0.0757020757020757
1504618562.7891295, 0.05738705738705739
1504618562.794474, 0.07203907203907205
1504618562.7997794, 0.06715506715506717
1504618562.8051112, 0.05128205128205128
1504618562.8104095, 0.09401709401709402
1504618562.8157086, 0.26495726495726496
1504618562.8210244, 0.5201465201465202
1504618562.8263254, 0.7594627594627594
1504618562.831641, 0.9365079365079365
1504618562.8369658, 0.8583638583638584
1504618562.842295, 0.5616605616605617
1504618562.8476028, 0.2698412698412699
1504618562.852984, 0.20757020757020755
1504618562.8582835, 0.21611721611721613
1504618562.8635828, 0.20634920634920634
1504618562.868896, 0.17704517704517703
1504618562.8741977, 0.1746031746031746
1504618562.8794937, 0.17826617826617824
1504618562.8848112, 0.15995115995115994
1504618562.8901253, 0.1452991452991453
1504618562.8954895, 0.15384615384615385
1504618562.9008465, 0.1575091575091575
1504618562.9061515, 0.14652014652014653
1504618562.9114506, 0.14041514041514042
1504618562.9167516, 0.16483516483516483
1504618562.9220498, 0.16483516483516483
1504618562.9273512, 0.15018315018315018
1504618562.932661, 0.1623931623931624
1504618562.9379745, 0.17704517704517703
1504618562.943303, 0.18192918192918195
1504618562.9486089, 0.16483516483516483
1504618562.9539104, 0.17948717948717946
1504618562.9592104, 0.20757020757020755
1504618562.9645147, 0.20024420024420025
1504618562.9698136, 0.19291819291819293
1504618562.9751287, 0.2197802197802198
1504618562.9804282, 0.231990231990232
1504618562.9857438, 0.22832722832722832
1504618562.9910824, 0.22954822954822957
1504618562.9964266, 0.2515262515262515
1504618563.001731, 0.26373626373626374
1504618563.0070615, 0.2600732600732601
1504618563.0123606, 0.2661782661782662
1504618563.017664, 0.2893772893772894
1504618563.0229971, 0.2979242979242979
1504618563.028303, 0.2905982905982906
1504618563.033618, 0.3052503052503052
1504618563.0389342, 0.33455433455433453
1504618563.044266, 0.32844932844932845
1504618563.0495725, 0.3199023199023199
1504618563.0548873, 0.3382173382173382
1504618563.0601876, 0.3504273504273504
1504618563.065489, 0.3406593406593406
1504618563.0707853, 0.3333333333333333
1504618563.0760865, 0.3504273504273504
1504618563.0813851, 0.3406593406593406
1504618563.08888, 0.3162393162393162
1504618563.0942545, 0.3052503052503052
1504618563.0995984, 0.2967032967032967
1504618563.1049206, 0.2588522588522589
1504618563.1102335, 0.2258852258852259
1504618563.1155307, 0.2197802197802198
1504618563.1208413, 0.2026862026862027
1504618563.1261585, 0.17094017094017094
1504618563.1314592, 0.1452991452991453
1504618563.13678, 0.15384615384615385
1504618563.1421332, 0.14163614163614163
1504618563.147443, 0.11477411477411478
1504618563.1528122, 0.115995115995116
1504618563.1581287, 0.12942612942612944
1504618563.1634355, 0.12087912087912088
1504618563.1687334, 0.10866910866910867
1504618563.1740487, 0.115995115995116
1504618563.179349, 0.13064713064713065
1504618563.184662, 0.12454212454212454
1504618563.1899798, 0.11233211233211234
1504618563.1952922, 0.13186813186813187
1504618563.2006457, 0.1391941391941392
1504618563.2059686, 0.12454212454212454
1504618563.2112644, 0.11721611721611722
1504618563.2165637, 0.14163614163614163
1504618563.2218773, 0.13797313797313798
1504618563.2271757, 0.12332112332112331
1504618563.2324731, 0.12576312576312576
1504618563.237787, 0.14285714285714285
1504618563.2431185, 0.1391941391941392
1504618563.2484286, 0.11843711843711843
1504618563.2537305, 0.12942612942612944
1504618563.259029, 0.14163614163614163
1504618563.2643285, 0.12942612942612944
1504618563.269629, 0.11111111111111112
1504618563.2749283, 0.12332112332112331
1504618563.2802253, 0.12942612942612944
1504618563.2855382, 0.11477411477411478
1504618563.290842, 0.10622710622710624
1504618563.2961485, 0.11965811965811966
1504618563.301489, 0.1221001221001221
1504618563.3067977, 0.10378510378510378
1504618563.3120944, 0.10256410256410256
1504618563.3173919, 0.11721611721611722
1504618563.32269, 0.1098901098901099
1504618563.3279874, 0.09768009768009768
1504618563.3335178, 0.10012210012210013
1504618563.3388245, 0.11355311355311355
1504618563.3441477, 0.10500610500610502
1504618563.3494523, 0.09035409035409037
1504618563.3547518, 0.10256410256410256
1504618563.3600492, 0.11965811965811966
1504618563.3653483, 0.11965811965811966
1504618563.3706477, 0.115995115995116
1504618563.3759494, 0.14041514041514042
1504618563.3812625, 0.14652014652014653
1504618563.3865743, 0.13675213675213677
1504618563.3918746, 0.14285714285714285
1504618563.397212, 0.1746031746031746
1504618563.4025466, 0.17338217338217338
1504618563.4078584, 0.15506715506715507
1504618563.4131718, 0.1575091575091575
1504618563.4184718, 0.1697191697191697
1504618563.4237728, 0.1514041514041514
1504618563.4290767, 0.11233211233211234
1504618563.4344041, 0.10622710622710624
1504618563.4397066, 0.10500610500610502
1504618563.4450488, 0.08913308913308912
1504618563.4503577, 0.06715506715506717
1504618563.455656, 0.08302808302808302
1504618563.4609692, 0.0879120879120879
1504618563.4662716, 0.07203907203907205
1504618563.4715688, 0.07081807081807082
1504618563.4768827, 0.08424908424908424
1504618563.4821794, 0.08424908424908424
1504618563.4874885, 0.06837606837606838
1504618563.4928606, 0.06837606837606838
1504618563.498184, 0.06593406593406594
1504618563.5035145, 0.06715506715506717
1504618563.508818, 0.15018315018315018
1504618563.5141368, 0.3565323565323565
1504618563.5194407, 0.6385836385836385
1504618563.5247502, 0.888888888888889
1504618563.5300477, 0.9487179487179487
1504618563.5353591, 0.8021978021978022
1504618563.5406618, 0.463980463980464
1504618563.5459855, 0.29181929181929184
1504618563.5512915, 0.23809523809523808
1504618563.5565932, 0.24297924297924298
1504618563.5618937, 0.22222222222222224
1504618563.567205, 0.18681318681318682
1504618563.572503, 0.1697191697191697
1504618563.5778046, 0.1746031746031746
1504618563.5831184, 0.1623931623931624
1504618563.5884306, 0.1391941391941392
1504618563.5937366, 0.1452991452991453
1504618563.599094, 0.16361416361416362
1504618563.6044312, 0.1514041514041514
1504618563.6097317, 0.13797313797313798
1504618563.6150606, 0.15384615384615385
1504618563.620356, 0.16605616605616605
1504618563.6256542, 0.1562881562881563
1504618563.6309795, 0.1526251526251526
1504618563.6362896, 0.17338217338217338
1504618563.6415894, 0.18070818070818073
1504618563.646916, 0.17094017094017094
1504618563.6522198, 0.17704517704517703
1504618563.6575212, 0.1978021978021978
1504618563.662972, 0.199023199023199
1504618563.6682723, 0.18803418803418803
1504618563.6735735, 0.2026862026862027
1504618563.678888, 0.2258852258852259
1504618563.6841967, 0.22344322344322345
1504618563.6895099, 0.21733821733821734
1504618563.6948128, 0.23565323565323565
1504618563.7001657, 0.2625152625152625
1504618563.705486, 0.2503052503052503
1504618563.7107852, 0.24664224664224663
1504618563.7160861, 0.2698412698412699
1504618563.7213845, 0.2796092796092796
1504618563.7266858, 0.2710622710622711
1504618563.7319815, 0.27350427350427353
1504618563.7373095, 0.2979242979242979
1504618563.742613, 0.2967032967032967
1504618563.7479272, 0.2844932844932845
1504618563.753257, 0.29181929181929184
1504618563.7585583, 0.3089133089133089
1504618563.7638667, 0.30158730158730157
1504618563.7691815, 0.28205128205128205
1504618563.7744813, 0.29304029304029305
1504618563.7797792, 0.29914529914529914
1504618563.7850797, 0.28205128205128205
1504618563.7904036, 0.25518925518925517
1504618563.7957053, 0.25518925518925517
1504618563.801084, 0.24664224664224663
1504618563.8064451, 0.20757020757020755
1504618563.81175, 0.18681318681318682
1504618563.817065, 0.18681318681318682
1504618563.8223627, 0.17216117216117216
1504618563.8276641, 0.14041514041514042
1504618563.8329873, 0.13431013431013433
1504618563.8383117, 0.14163614163614163
1504618563.8436203, 0.1282051282051282
1504618563.8489597, 0.11111111111111112
1504618563.8542829, 0.11721611721611722
1504618563.859584, 0.13064713064713065
1504618563.8649025, 0.12087912087912088
1504618563.8702157, 0.1098901098901099
1504618563.875514, 0.12698412698412698
1504618563.8808138, 0.13431013431013433
1504618563.8863587, 0.12332112332112331
1504618563.8916602, 0.11843711843711843
1504618563.8969789, 0.14163614163614163
1504618563.9023664, 0.14163614163614163
1504618563.9077005, 0.12332112332112331
1504618563.9130297, 0.12698412698412698
1504618563.9183416, 0.1452991452991453
1504618563.9236455, 0.13675213675213677
1504618563.9289582, 0.11843711843711843
1504618563.934276, 0.13064713064713065
1504618563.9395864, 0.14163614163614163
1504618563.9449115, 0.13186813186813187
1504618563.9502535, 0.115995115995116
1504618563.955562, 0.13064713064713065
1504618563.960882, 0.13553113553113555
1504618563.966194, 0.11721611721611722
1504618563.9714932, 0.1098901098901099
1504618563.976794, 0.12454212454212454
1504618563.9821055, 0.12454212454212454
1504618563.987418, 0.10378510378510378
1504618563.992718, 0.10744810744810745
1504618563.9981, 0.12454212454212454
1504618564.0034459, 0.11721611721611722
1504618564.0087554, 0.09401709401709402
1504618564.0140798, 0.10134310134310134
1504618564.0193934, 0.11477411477411478
1504618564.0246918, 0.10256410256410256
1504618564.030005, 0.0879120879120879
1504618564.035303, 0.10012210012210013
1504618564.0406141, 0.1098901098901099
1504618564.0459392, 0.0927960927960928
1504618564.0512571, 0.08669108669108669
1504618564.0565627, 0.10378510378510378
1504618564.0618763, 0.10256410256410256
1504618564.0671797, 0.0879120879120879
1504618564.0724785, 0.09523809523809525
1504618564.077776, 0.1221001221001221
1504618564.083079, 0.12332112332112331
1504618564.088391, 0.11233211233211234
1504618564.0936985, 0.12332112332112331
1504618564.099002, 0.1452991452991453
1504618564.1043615, 0.1452991452991453
1504618564.1096714, 0.13797313797313798
1504618564.1149774, 0.15506715506715507
1504618564.1202729, 0.16117216117216118
1504618564.1255767, 0.14652014652014653
1504618564.1308734, 0.13186813186813187
1504618564.1361735, 0.1391941391941392
1504618564.1414878, 0.12576312576312576
1504618564.1467924, 0.09523809523809525
1504618564.1521103, 0.08058608058608059
1504618564.1574185, 0.09157509157509158
1504618564.162716, 0.08424908424908424
1504618564.1680706, 0.06471306471306472
1504618564.1733775, 0.07203907203907205
1504618564.1786733, 0.0879120879120879
1504618564.1839702, 0.07936507936507936
1504618564.1892784, 0.05982905982905983
1504618564.1945815, 0.07448107448107448
1504618564.199881, 0.08669108669108669
1504618564.2052393, 0.07203907203907205
1504618564.2105463, 0.04761904761904762
1504618564.2158468, 0.0695970695970696
1504618564.2211454, 0.16483516483516483
1504618564.2264452, 0.32844932844932845
1504618564.2317455, 0.57997557997558
1504618564.2370462, 0.8717948717948718
1504618564.242358, 1.0
1504618564.2476618, 0.8547008547008548
1504618564.2529874, 0.5811965811965812
1504618564.2582932, 0.37606837606837606
1504618564.2635965, 0.3052503052503052
1504618564.2688956, 0.2515262515262515
1504618564.2741988, 0.23321123321123322
1504618564.2794983, 0.21855921855921856
1504618564.2848017, 0.18681318681318682
1504618564.2901146, 0.15506715506715507
1504618564.2954173, 0.1623931623931624
1504618564.3007188, 0.16483516483516483
1504618564.3060758, 0.14652014652014653
1504618564.3113813, 0.13675213675213677
1504618564.3166847, 0.15506715506715507
1504618564.321982, 0.15873015873015872
1504618564.3272812, 0.14163614163614163
1504618564.3325787, 0.14774114774114774
1504618564.3378766, 0.16727716727716727
1504618564.3431978, 0.16605616605616605
1504618564.3485012, 0.15018315018315018
1504618564.3538165, 0.16849816849816848
1504618564.3591385, 0.1855921855921856
1504618564.3644462, 0.17948717948717946
1504618564.3697448, 0.1697191697191697
1504618564.3750696, 0.18681318681318682
1504618564.3803656, 0.20512820512820512
1504618564.385663, 0.19658119658119658
1504618564.3910067, 0.19413919413919414
1504618564.3963103, 0.21611721611721613
1504618564.4016135, 0.2271062271062271
1504618564.4070003, 0.2148962148962149
1504618564.412303, 0.22222222222222224
1504618564.4176028, 0.24664224664224663
1504618564.4230094, 0.2490842490842491
1504618564.4283068, 0.23931623931623933
1504618564.4336052, 0.25396825396825395
1504618564.439102, 0.2796092796092796
1504618564.4444113, 0.27472527472527475
1504618564.4497113, 0.2612942612942613
1504618564.4550717, 0.2905982905982906
1504618564.4603798, 0.2967032967032967
1504618564.4656823, 0.2893772893772894
1504618564.471009, 0.2796092796092796
1504618564.4763117, 0.30158730158730157
1504618564.4816117, 0.30158730158730157
1504618564.48693, 0.2857142857142857
1504618564.4922426, 0.2796092796092796
1504618564.4975455, 0.29304029304029305
1504618564.5029187, 0.2796092796092796
1504618564.5082753, 0.24297924297924298
1504618564.5135827, 0.23565323565323565
1504618564.5188985, 0.23321123321123322
1504618564.5242035, 0.20634920634920634
1504618564.5295012, 0.17094017094017094
1504618564.5347986, 0.16727716727716727
1504618564.5401087, 0.16727716727716727
1504618564.5454237, 0.14285714285714285
1504618564.550722, 0.12332112332112331
1504618564.5560544, 0.13797313797313798
1504618564.5613568, 0.1330891330891331
1504618564.566659, 0.11355311355311355
1504618564.571957, 0.11111111111111112
1504618564.5772738, 0.12942612942612944
1504618564.582573, 0.12576312576312576
1504618564.5906565, 0.11233211233211234
1504618564.5959964, 0.13186813186813187
1504618564.6013086, 0.13675213675213677
1504618564.606636, 0.12698412698412698
1504618564.6119564, 0.1221001221001221
1504618564.6172745, 0.14163614163614163
1504618564.6225681, 0.14163614163614163
1504618564.627869, 0.1221001221001221
1504618564.6331882, 0.13064713064713065
1504618564.638488, 0.14774114774114774
1504618564.643811, 0.14041514041514042
1504618564.6491294, 0.12087912087912088
1504618564.6544414, 0.13186813186813187
1504618564.6597517, 0.14652014652014653
1504618564.6650686, 0.13431013431013433
1504618564.670366, 0.11965811965811966
1504618564.6756666, 0.1330891330891331
1504618564.6809833, 0.14041514041514042
1504618564.68634, 0.12332112332112331
1504618564.6916714, 0.11477411477411478
1504618564.696994, 0.1330891330891331
1504618564.702307, 0.1282051282051282
1504618564.7076383, 0.11355311355311355
1504618564.7130992, 0.11111111111111112
1504618564.7184064, 0.13064713064713065
1504618564.7237122, 0.11965811965811966
1504618564.729026, 0.10256410256410256
1504618564.734337, 0.11233211233211234
1504618564.7396338, 0.12332112332112331
1504618564.7449641, 0.11233211233211234
1504618564.7502792, 0.09768009768009768
1504618564.7555945, 0.11355311355311355
1504618564.7609208, 0.11965811965811966
1504618564.7662394, 0.10622710622710624
1504618564.7715364, 0.10012210012210013
1504618564.776855, 0.12576312576312576
1504618564.782169, 0.1330891330891331
1504618564.787469, 0.12087912087912088
1504618564.792865, 0.13064713064713065
1504618564.7981846, 0.15384615384615385
1504618564.8034937, 0.15018315018315018
1504618564.8088646, 0.1452991452991453
1504618564.8141959, 0.16727716727716727
1504618564.8194969, 0.18803418803418803
1504618564.8247986, 0.17338217338217338
1504618564.8301075, 0.1562881562881563
1504618564.835405, 0.16727716727716727
1504618564.840925, 0.16727716727716727
1504618564.846254, 0.13064713064713065
1504618564.851552, 0.10744810744810745
1504618564.8568823, 0.115995115995116
1504618564.8622034, 0.11233211233211234
1504618564.8675041, 0.08913308913308912
1504618564.8728898, 0.0879120879120879
1504618564.8782024, 0.10744810744810745
1504618564.8835068, 0.10012210012210013
1504618564.888804, 0.08180708180708181
1504618564.894137, 0.09157509157509158
1504618564.899439, 0.1098901098901099
1504618564.9047391, 0.0989010989010989
1504618564.9101424, 0.08180708180708181
1504618564.9154644, 0.08058608058608059
1504618564.9207647, 0.10378510378510378
1504618564.9260993, 0.19413919413919414
1504618564.9313984, 0.3821733821733822
1504618564.9367, 0.6776556776556776
1504618564.9420362, 0.9340659340659341
1504618564.9473424, 1.0024420024420024
1504618564.9526443, 0.8424908424908426
1504618564.9579773, 0.5335775335775336
1504618564.963296, 0.3565323565323565
1504618564.9685967, 0.2893772893772894
1504618564.9739232, 0.2722832722832723
1504618564.9792237, 0.2625152625152625
1504618564.9845257, 0.23076923076923078
1504618564.9898348, 0.19536019536019536
1504618564.995151, 0.19658119658119658
1504618565.0004516, 0.199023199023199
1504618565.0057666, 0.18437118437118438
1504618565.0111556, 0.1746031746031746
1504618565.0165167, 0.18681318681318682
1504618565.0218415, 0.18803418803418803
1504618565.0271423, 0.1758241758241758
1504618565.0325816, 0.18315018315018317
1504618565.0379016, 0.20146520146520147
1504618565.0432172, 0.19658119658119658
1504618565.0485203, 0.18192918192918195
1504618565.0538507, 0.19413919413919414
1504618565.0591772, 0.2136752136752137
1504618565.0644896, 0.21001221001221004
1504618565.0697901, 0.199023199023199
1504618565.0750928, 0.23076923076923078
1504618565.0803914, 0.23809523809523808
1504618565.0856984, 0.231990231990232
1504618565.0909994, 0.2271062271062271
1504618565.096313, 0.25518925518925517
1504618565.101616, 0.2600732600732601
1504618565.1069174, 0.2600732600732601
1504618565.1122594, 0.26373626373626374
1504618565.1175678, 0.2869352869352869
1504618565.1229494, 0.29181929181929184
1504618565.1282508, 0.28205128205128205
1504618565.1335585, 0.30158730158730157
1504618565.1388605, 0.3247863247863248
1504618565.144174, 0.31746031746031744
1504618565.1494792, 0.3162393162393162
1504618565.1547801, 0.33455433455433453
1504618565.160091, 0.3565323565323565
1504618565.1654484, 0.34676434676434675
1504618565.1707518, 0.3431013431013431
1504618565.176054, 0.3650793650793651
1504618565.1813514, 0.37362637362637363
1504618565.186653, 0.3504273504273504
1504618565.1920354, 0.3516483516483516
1504618565.197358, 0.3650793650793651
1504618565.202657, 0.35286935286935284
1504618565.207958, 0.3235653235653236
1504618565.2133207, 0.30647130647130644
1504618565.2186298, 0.30158730158730157
1504618565.2239318, 0.27472527472527475
1504618565.2292314, 0.22954822954822957
1504618565.2345357, 0.2271062271062271
1504618565.2399185, 0.21855921855921856
1504618565.2452345, 0.19536019536019536
1504618565.2505364, 0.16727716727716727
1504618565.2558374, 0.1758241758241758
1504618565.2611609, 0.1746031746031746
1504618565.266484, 0.15995115995115994
1504618565.27179, 0.1526251526251526
1504618565.277093, 0.1697191697191697
1504618565.2823915, 0.16849816849816848
1504618565.2876954, 0.1526251526251526
1504618565.2932193, 0.1562881562881563
1504618565.298528, 0.1746031746031746
1504618565.303831, 0.1697191697191697
1504618565.30913, 0.1575091575091575
1504618565.3144693, 0.16483516483516483
1504618565.3197794, 0.18803418803418803
1504618565.3250911, 0.17704517704517703
1504618565.3303895, 0.16727716727716727
1504618565.3356884, 0.17704517704517703
1504618565.340989, 0.18315018315018317
1504618565.3463004, 0.16727716727716727
1504618565.3516016, 0.16361416361416362
1504618565.3569024, 0.17948717948717946
1504618565.3622177, 0.1855921855921856
1504618565.3675292, 0.16361416361416362
1504618565.3728945, 0.16605616605616605
1504618565.3782353, 0.18192918192918195
1504618565.3835502, 0.17704517704517703
1504618565.388848, 0.1562881562881563
1504618565.394162, 0.16361416361416362
1504618565.3994658, 0.1758241758241758
1504618565.4047747, 0.1623931623931624
1504618565.4100804, 0.1452991452991453
1504618565.415423, 0.16361416361416362
1504618565.4207237, 0.16605616605616605
1504618565.4260275, 0.15506715506715507
1504618565.4313266, 0.14285714285714285
1504618565.4366252, 0.16117216117216118
1504618565.4419208, 0.1575091575091575
1504618565.4472363, 0.14041514041514042
1504618565.4525368, 0.14285714285714285
1504618565.457836, 0.15873015873015872
1504618565.4631705, 0.1575091575091575
1504618565.4684732, 0.13797313797313798
1504618565.4737744, 0.14652014652014653
1504618565.4790876, 0.17216117216117216
1504618565.484391, 0.16361416361416362
1504618565.489692, 0.14896214896214896
1504618565.4951007, 0.16605616605616605
1504618565.5004547, 0.18070818070818073
1504618565.5057569, 0.17094017094017094
1504618565.5110853, 0.17338217338217338
1504618565.5164292, 0.2039072039072039
1504618565.521733, 0.20879120879120877
1504618565.5270598, 0.1904761904761905
1504618565.532358, 0.1904761904761905
1504618565.5376563, 0.19536019536019536
1504618565.5429866, 0.18070818070818073
1504618565.5482976, 0.14652014652014653
1504618565.5536013, 0.14163614163614163
1504618565.5589159, 0.15018315018315018
1504618565.5642333, 0.13675213675213677
1504618565.5697463, 0.11843711843711843
1504618565.5781512, 0.14652014652014653
1504618565.5835261, 0.1330891330891331
1504618565.588853, 0.115995115995116
1504618565.5941978, 0.12332112332112331
1504618565.5995104, 0.1391941391941392
1504618565.6048102, 0.12942612942612944
1504618565.6101255, 0.11111111111111112
1504618565.6154695, 0.11477411477411478
1504618565.6207995, 0.12332112332112331
1504618565.6261044, 0.199023199023199
1504618565.631403, 0.3894993894993895
1504618565.6367037, 0.6678876678876678
1504618565.642007, 0.9255189255189256
1504618565.647323, 0.9938949938949938
1504618565.6526277, 0.8388278388278387
1504618565.6579292, 0.49450549450549447
1504618565.6632466, 0.3089133089133089
1504618565.6685488, 0.25274725274725274
1504618565.673854, 0.2576312576312576
1504618565.6791675, 0.2673992673992674
1504618565.6844735, 0.24786324786324784
1504618565.6897748, 0.21245421245421248
1504618565.6952372, 0.21245421245421248
1504618565.7005417, 0.22222222222222224
1504618565.7058449, 0.20146520146520147
1504618565.7111557, 0.19658119658119658
1504618565.7165177, 0.21245421245421248
1504618565.7218313, 0.21733821733821734
1504618565.7271466, 0.1978021978021978
1504618565.732444, 0.20146520146520147
1504618565.7377443, 0.22100122100122102
1504618565.743069, 0.22100122100122102
1504618565.748382, 0.21001221001221004
1504618565.7536952, 0.21855921855921856
1504618565.7590208, 0.24175824175824176
1504618565.7643347, 0.23687423687423687
1504618565.76964, 0.22954822954822957
1504618565.7749703, 0.25396825396825395
1504618565.780267, 0.2661782661782662
1504618565.7855697, 0.2600732600732601
1504618565.7908823, 0.25396825396825395
1504618565.796285, 0.2881562881562882
1504618565.8015866, 0.30036630036630035
1504618565.806906, 0.2869352869352869
1504618565.8122091, 0.29181929181929184
1504618565.817564, 0.3211233211233211
1504618565.822981, 0.3247863247863248
1504618565.8282807, 0.3137973137973138
1504618565.833584, 0.3406593406593406
1504618565.8388991, 0.3589743589743589
1504618565.8442364, 0.3589743589743589
1504618565.8495529, 0.34798534798534797
1504618565.8548715, 0.36996336996337
1504618565.8601701, 0.39194139194139194
1504618565.8654847, 0.3797313797313797
1504618565.8707855, 0.3724053724053724
1504618565.8760884, 0.39194139194139194
1504618565.881388, 0.398046398046398
1504618565.8866892, 0.3797313797313797
1504618565.8919876, 0.37484737484737485
1504618565.8973167, 0.38461538461538464
1504618565.9026191, 0.37362637362637363
1504618565.9079194, 0.3418803418803419
1504618565.9132426, 0.32722832722832723
1504618565.9186072, 0.3235653235653236
1504618565.9239779, 0.2869352869352869
1504618565.9292974, 0.24786324786324784
1504618565.9345984, 0.23687423687423687
1504618565.9398956, 0.23443223443223443
1504618565.9452143, 0.21245421245421248
1504618565.9505305, 0.18315018315018317
1504618565.955833, 0.18681318681318682
1504618565.9611475, 0.18681318681318682
1504618565.966461, 0.16849816849816848
1504618565.971758, 0.1575091575091575
1504618565.977092, 0.17826617826617824
1504618565.98239, 0.18070818070818073
1504618565.9876904, 0.15995115995115994
1504618565.993005, 0.16605616605616605
1504618565.9983354, 0.18437118437118438
1504618566.0036442, 0.18070818070818073
1504618566.0089602, 0.16361416361416362
1504618566.0142813, 0.18192918192918195
1504618566.019624, 0.18925518925518925
1504618566.024964, 0.17948717948717946
1504618566.0302818, 0.16727716727716727
1504618566.0355844, 0.18315018315018317
1504618566.0408998, 0.1904761904761905
1504618566.0462134, 0.17704517704517703
1504618566.0515304, 0.17338217338217338
1504618566.0568504, 0.18803418803418803
1504618566.0621636, 0.1855921855921856
1504618566.067477, 0.16483516483516483
1504618566.0728614, 0.16727716727716727
1504618566.0781791, 0.18681318681318682
1504618566.0834846, 0.1758241758241758
1504618566.091024, 0.15995115995115994
1504618566.096353, 0.17216117216117216
1504618566.1016726, 0.17338217338217338
1504618566.1069748, 0.15384615384615385
1504618566.1122735, 0.15018315018315018
1504618566.1175723, 0.16849816849816848
1504618566.1230385, 0.16361416361416362
1504618566.1283498, 0.14285714285714285
1504618566.1336548, 0.15018315018315018
1504618566.138952, 0.16605616605616605
1504618566.1442497, 0.1562881562881563
1504618566.1495683, 0.14041514041514042
1504618566.1548738, 0.15384615384615385
1504618566.1601741, 0.17338217338217338
1504618566.1654832, 0.1697191697191697
1504618566.1708038, 0.16605616605616605
1504618566.1761162, 0.18925518925518925
1504618566.1814146, 0.20024420024420025
1504618566.1867156, 0.18803418803418803
1504618566.192012, 0.19536019536019536
1504618566.1975362, 0.22344322344322345
1504618566.2029247, 0.22466422466422467
1504618566.2082274, 0.20634920634920634
1504618566.2135289, 0.20879120879120877
1504618566.21883, 0.22466422466422467
1504618566.2241669, 0.2026862026862027
1504618566.2294738, 0.1623931623931624
1504618566.234779, 0.15506715506715507
1504618566.2400782, 0.1526251526251526
1504618566.2453809, 0.13553113553113555
1504618566.250693, 0.11721611721611722
1504618566.2559986, 0.1330891330891331
1504618566.261309, 0.13797313797313798
1504618566.2666118, 0.12454212454212454
1504618566.2719223, 0.11477411477411478
1504618566.277251, 0.1330891330891331
1504618566.2825522, 0.13064713064713065
1504618566.2878551, 0.1098901098901099
1504618566.2931705, 0.11111111111111112
1504618566.2984865, 0.1098901098901099
1504618566.3037887, 0.11721611721611722
1504618566.3091023, 0.20512820512820512
1504618566.314403, 0.4200244200244201
1504618566.31971, 0.7216117216117215
1504618566.3250706, 0.9597069597069597
1504618566.3303957, 1.0073260073260073
1504618566.3356977, 0.844932844932845
1504618566.3410137, 0.5006105006105006
1504618566.3463137, 0.3321123321123321
1504618566.3516293, 0.28083028083028083
1504618566.3569498, 0.2844932844932845
1504618566.3622508, 0.2661782661782662
1504618566.3675551, 0.23809523809523808
1504618566.3729665, 0.2136752136752137
1504618566.378273, 0.2197802197802198
1504618566.3835738, 0.20634920634920634
1504618566.3888907, 0.18315018315018317
1504618566.394191, 0.1904761904761905
1504618566.3995051, 0.20634920634920634
1504618566.40483, 0.1978021978021978
1504618566.4101303, 0.18681318681318682
1504618566.4154296, 0.20024420024420025
1504618566.4207413, 0.21855921855921856
1504618566.426071, 0.2026862026862027
1504618566.431378, 0.199023199023199
1504618566.436679, 0.22100122100122102
1504618566.4419785, 0.2271062271062271
1504618566.447281, 0.2136752136752137
1504618566.4525945, 0.22100122100122102
1504618566.4578986, 0.2454212454212454
1504618566.4631994, 0.2454212454212454
1504618566.4685032, 0.24175824175824176
1504618566.4738088, 0.2490842490842491
1504618566.4791336, 0.2722832722832723
1504618566.4844422, 0.2710622710622711
1504618566.489741, 0.26373626373626374
1504618566.4950683, 0.2857142857142857
1504618566.5003874, 0.3052503052503052
1504618566.5056949, 0.29914529914529914
1504618566.5110228, 0.29426129426129427
1504618566.516323, 0.31868131868131866
1504618566.5216775, 0.3382173382173382
1504618566.5270684, 0.3211233211233211
1504618566.5323777, 0.3247863247863248
1504618566.5376825, 0.34798534798534797
1504618566.5430171, 0.34798534798534797
1504618566.5483115, 0.3308913308913309
1504618566.553624, 0.3418803418803419
1504618566.5589519, 0.3577533577533577
1504618566.564259, 0.3516483516483516
1504618566.5695662, 0.3382173382173382
1504618566.5748882, 0.3431013431013431
1504618566.5801916, 0.34554334554334554
1504618566.5854917, 0.32722832722832723
1504618566.590792, 0.29914529914529914
1504618566.5960927, 0.29914529914529914
1504618566.6014102, 0.2869352869352869
1504618566.6067157, 0.2515262515262515
1504618566.6120167, 0.23076923076923078
1504618566.6173322, 0.231990231990232
1504618566.6226525, 0.22100122100122102
1504618566.6279767, 0.18437118437118438
1504618566.6333008, 0.17826617826617824
1504618566.638602, 0.18925518925518925
1504618566.6439095, 0.1746031746031746
1504618566.6494212, 0.15506715506715507
1504618566.6547415, 0.16483516483516483
1504618566.6600418, 0.17948717948717946
1504618566.6653416, 0.16727716727716727
1504618566.6706514, 0.1562881562881563
1504618566.675953, 0.1758241758241758
1504618566.681271, 0.18192918192918195
1504618566.6865723, 0.1697191697191697
1504618566.691871, 0.16483516483516483
1504618566.697186, 0.18681318681318682
1504618566.7025008, 0.18681318681318682
1504618566.7078044, 0.17094017094017094
1504618566.713122, 0.17338217338217338
1504618566.718422, 0.19291819291819293
1504618566.723754, 0.1904761904761905
1504618566.7290962, 0.16727716727716727
1504618566.7344031, 0.17826617826617824
1504618566.7397027, 0.1916971916971917
1504618566.7450182, 0.18192918192918195
1504618566.7503462, 0.16361416361416362
1504618566.7556489, 0.17704517704517703
1504618566.760965, 0.18437118437118438
1504618566.766279, 0.16727716727716727
1504618566.7715864, 0.15873015873015872
1504618566.7769098, 0.1746031746031746
1504618566.7822282, 0.17338217338217338
1504618566.787529, 0.1514041514041514
1504618566.7929265, 0.15384615384615385
1504618566.7982423, 0.17216117216117216
1504618566.8035643, 0.1623931623931624
1504618566.8088841, 0.14285714285714285
1504618566.814202, 0.1514041514041514
1504618566.8194988, 0.16727716727716727
1504618566.8248727, 0.1575091575091575
1504618566.8302164, 0.1391941391941392
1504618566.8355284, 0.1526251526251526
1504618566.840843, 0.1623931623931624
1504618566.8461583, 0.14652014652014653
1504618566.8514738, 0.13553113553113555
1504618566.856775, 0.1562881562881563
1504618566.862073, 0.16117216117216118
1504618566.8673844, 0.1562881562881563
1504618566.8726928, 0.16727716727716727
1504618566.878016, 0.19658119658119658
1504618566.883324, 0.19536019536019536
1504618566.8886235, 0.18315018315018317
1504618566.8939435, 0.19536019536019536
1504618566.8992422, 0.2197802197802198
1504618566.9045613, 0.21855921855921856
1504618566.909878, 0.20634920634920634
1504618566.9151795, 0.22100122100122102
1504618566.920477, 0.22466422466422467
1504618566.9258652, 0.21001221001221004
1504618566.9311967, 0.17826617826617824
1504618566.9365106, 0.17338217338217338
1504618566.9418068, 0.1562881562881563
1504618566.9471233, 0.1282051282051282
1504618566.9524364, 0.12332112332112331
1504618566.9577382, 0.1391941391941392
1504618566.963045, 0.13431013431013433
1504618566.968344, 0.11355311355311355
1504618566.9736593, 0.12087912087912088
1504618566.9789584, 0.13675213675213677
1504618566.9842615, 0.1282051282051282
1504618566.9895594, 0.1098901098901099
1504618566.9948575, 0.1221001221001221
1504618567.0001535, 0.12698412698412698
1504618567.0054717, 0.10500610500610502
1504618567.0107718, 0.13797313797313798
1504618567.0160756, 0.2954822954822955
1504618567.0213742, 0.5286935286935287
1504618567.0267153, 0.8034188034188035
1504618567.032031, 1.0122100122100122
1504618567.0373397, 1.010989010989011
1504618567.0426686, 0.7924297924297924
1504618567.0479772, 0.4652014652014652
1504618567.0532997, 0.3638583638583639
1504618567.0586035, 0.3406593406593406
1504618567.0639095, 0.30036630036630035
1504618567.0692108, 0.25274725274725274
1504618567.074525, 0.23931623931623933
1504618567.0798285, 0.23687423687423687
1504618567.0851405, 0.2136752136752137
1504618567.0904388, 0.1904761904761905
1504618567.0957377, 0.20146520146520147
1504618567.1010776, 0.20879120879120877
1504618567.1063936, 0.1916971916971917
1504618567.1116936, 0.18681318681318682
1504618567.1169956, 0.20757020757020755
1504618567.122294, 0.21123321123321126
1504618567.1276455, 0.19658119658119658
1504618567.1330333, 0.2026862026862027
1504618567.138337, 0.22466422466422467
1504618567.1436384, 0.22100122100122102
1504618567.1489353, 0.20634920634920634
1504618567.1542497, 0.2197802197802198
1504618567.1595519, 0.24053724053724054
1504618567.164857, 0.23565323565323565
1504618567.1701574, 0.22832722832722832
1504618567.1754732, 0.24786324786324784
1504618567.1807742, 0.2661782661782662
1504618567.1860778, 0.2588522588522589
1504618567.191375, 0.25396825396825395
1504618567.1967068, 0.28205128205128205
1504618567.2020204, 0.29304029304029305
1504618567.2073274, 0.28083028083028083
1504618567.2126276, 0.2869352869352869
1504618567.2179272, 0.315018315018315
1504618567.2232263, 0.31868131868131866
1504618567.2285748, 0.304029304029304
1504618567.233881, 0.32234432234432236
1504618567.2391982, 0.3406593406593406
1504618567.244497, 0.3382173382173382
1504618567.2497935, 0.3235653235653236
1504618567.2551274, 0.3443223443223443
1504618567.2604296, 0.3577533577533577
1504618567.26573, 0.34676434676434675
1504618567.2710538, 0.33577533577533575
1504618567.27637, 0.3504273504273504
1504618567.28167, 0.35531135531135527
1504618567.2870035, 0.33455433455433453
1504618567.2923028, 0.3211233211233211
1504618567.2976031, 0.326007326007326
1504618567.3030534, 0.3089133089133089
1504618567.30836, 0.2673992673992674
1504618567.3136609, 0.25518925518925517
1504618567.318988, 0.2576312576312576
1504618567.3242888, 0.22954822954822957
1504618567.3296375, 0.1978021978021978
1504618567.3349762, 0.199023199023199
1504618567.3402767, 0.2039072039072039
1504618567.345578, 0.18315018315018317
1504618567.35089, 0.16361416361416362
1504618567.356208, 0.17826617826617824
1504618567.361507, 0.18070818070818073
1504618567.3668065, 0.16605616605616605
1504618567.3721154, 0.16117216117216118
1504618567.3774266, 0.1855921855921856
1504618567.3827994, 0.18192918192918195
1504618567.388103, 0.16727716727716727
1504618567.3934026, 0.17216117216117216
1504618567.398704, 0.19413919413919414
1504618567.4040263, 0.18681318681318682
1504618567.409333, 0.1697191697191697
1504618567.414636, 0.18437118437118438
1504618567.4199347, 0.199023199023199
1504618567.4252512, 0.18925518925518925
1504618567.430613, 0.17826617826617824
1504618567.4359238, 0.19413919413919414
1504618567.441241, 0.20024420024420025
1504618567.4465399, 0.18192918192918195
1504618567.4518356, 0.17704517704517703
1504618567.4571652, 0.19658119658119658
1504618567.4624643, 0.19536019536019536
1504618567.4677653, 0.17338217338217338
1504618567.4730856, 0.17704517704517703
1504618567.4783978, 0.19291819291819293
1504618567.483709, 0.18681318681318682
1504618567.489026, 0.16605616605616605
1504618567.4943297, 0.17338217338217338
1504618567.499629, 0.18803418803418803
1504618567.504959, 0.1758241758241758
1504618567.510281, 0.15873015873015872
1504618567.515583, 0.17216117216117216
1504618567.5208976, 0.18192918192918195
1504618567.5262144, 0.16483516483516483
1504618567.5315678, 0.1526251526251526
1504618567.5368912, 0.17216117216117216
1504618567.5422099, 0.17338217338217338
1504618567.5475152, 0.15506715506715507
1504618567.5528965, 0.1562881562881563
1504618567.5582263, 0.17704517704517703
1504618567.5635326, 0.1697191697191697
1504618567.568851, 0.14896214896214896
1504618567.5741658, 0.1575091575091575
1504618567.5794833, 0.1758241758241758
1504618567.5847886, 0.17216117216117216
1504618567.5925133, 0.17826617826617824
1504618567.5978649, 0.199023199023199
1504618567.603166, 0.199023199023199
1504618567.6084785, 0.18315018315018317
1504618567.6137755, 0.19658119658119658
1504618567.6190739, 0.2271062271062271
1504618567.6243758, 0.22954822954822957
1504618567.629676, 0.21733821733821734
1504618567.6350143, 0.22466422466422467
1504618567.6403234, 0.24175824175824176
1504618567.6456351, 0.21733821733821734
1504618567.6509335, 0.1904761904761905
1504618567.6562488, 0.1904761904761905
1504618567.6615467, 0.1758241758241758
1504618567.6668503, 0.15018315018315018
1504618567.6721518, 0.1391941391941392
1504618567.677449, 0.1575091575091575
1504618567.682851, 0.15384615384615385
1504618567.6881547, 0.13553113553113555
1504618567.6934614, 0.13675213675213677
1504618567.6987627, 0.15506715506715507
1504618567.7040842, 0.15018315018315018
1504618567.7093854, 0.1282051282051282
1504618567.7146878, 0.14285714285714285
1504618567.7199874, 0.1526251526251526
1504618567.7252903, 0.12698412698412698
1504618567.7305918, 0.13431013431013433
1504618567.7359455, 0.2710622710622711
1504618567.7412548, 0.4908424908424908
1504618567.7465613, 0.7362637362637363
1504618567.7518618, 0.9804639804639804
1504618567.7571788, 1.0634920634920635
1504618567.7624834, 0.8962148962148963
1504618567.7677839, 0.5567765567765568
1504618567.7730994, 0.4017094017094017
1504618567.7784002, 0.36996336996337
1504618567.7837243, 0.33455433455433453
1504618567.7890265, 0.2869352869352869
1504618567.7943316, 0.2722832722832723
1504618567.7996309, 0.2661782661782662
1504618567.8049443, 0.24297924297924298
1504618567.8102472, 0.21611721611721613
1504618567.8155491, 0.22954822954822957
1504618567.820848, 0.23809523809523808
1504618567.8261492, 0.2258852258852259
1504618567.8314557, 0.21855921855921856
1504618567.8367875, 0.23565323565323565
1504618567.8420916, 0.24053724053724054
1504618567.8473952, 0.22222222222222224
1504618567.8526947, 0.22832722832722832
1504618567.8580134, 0.25274725274725274
1504618567.8633182, 0.2515262515262515
1504618567.8686142, 0.23565323565323565
1504618567.873946, 0.2490842490842491
1504618567.8792486, 0.2710622710622711
1504618567.8845747, 0.26862026862026867
1504618567.8898764, 0.2576312576312576
1504618567.8951952, 0.27594627594627597
1504618567.9004953, 0.29426129426129427
1504618567.9058087, 0.2881562881562882
1504618567.9111252, 0.2881562881562882
1504618567.916431, 0.31135531135531136
1504618567.921729, 0.326007326007326
1504618567.9270535, 0.3137973137973138
1504618567.9323573, 0.3235653235653236
1504618567.937704, 0.3492063492063492
1504618567.9430466, 0.35286935286935284
1504618567.948347, 0.3443223443223443
1504618567.9536471, 0.3577533577533577
1504618567.9589913, 0.38705738705738707
1504618567.9643028, 0.38461538461538464
1504618567.969601, 0.3711843711843712
1504618567.9749134, 0.3907203907203907
1504618567.9802132, 0.4078144078144078
1504618567.9855354, 0.4017094017094017
1504618567.9908516, 0.38705738705738707
1504618567.996158, 0.409035409035409
1504618568.0014567, 0.4151404151404151
1504618568.0067728, 0.39438339438339437
1504618568.0120747, 0.3821733821733822
1504618568.0173786, 0.3894993894993895
1504618568.0226777, 0.36630036630036633
1504618568.0279753, 0.32234432234432236
1504618568.03331, 0.315018315018315
1504618568.0386415, 0.3052503052503052
1504618568.0439591, 0.2796092796092796
1504618568.049277, 0.24175824175824176
1504618568.0545764, 0.23809523809523808
1504618568.0598907, 0.24053724053724054
1504618568.0652125, 0.22344322344322345
1504618568.0705116, 0.20146520146520147
1504618568.075813, 0.21123321123321126
1504618568.081127, 0.21733821733821734
1504618568.086449, 0.199023199023199
1504618568.0917516, 0.1916971916971917
1504618568.097086, 0.2136752136752137
1504618568.102385, 0.2197802197802198
1504618568.1076975, 0.199023199023199
1504618568.1130226, 0.2026862026862027
1504618568.1183288, 0.22344322344322345
1504618568.1236303, 0.21855921855921856
1504618568.128946, 0.2039072039072039
1504618568.1342852, 0.22344322344322345
1504618568.139606, 0.23321123321123322
1504618568.1449301, 0.22344322344322345
1504618568.1502476, 0.20634920634920634
1504618568.1555488, 0.2271062271062271
1504618568.160876, 0.23443223443223443
1504618568.1661963, 0.21733821733821734
1504618568.1714964, 0.2039072039072039
1504618568.1767979, 0.2271062271062271
1504618568.1821167, 0.231990231990232
1504618568.1874423, 0.20757020757020755
1504618568.1928263, 0.20879120879120877
1504618568.1981504, 0.22344322344322345
1504618568.2034564, 0.2197802197802198
1504618568.2087674, 0.20024420024420025
1504618568.2140863, 0.2039072039072039
1504618568.2193873, 0.21855921855921856
1504618568.2246883, 0.20879120879120877
1504618568.2300034, 0.1916971916971917
1504618568.2353346, 0.21245421245421248
1504618568.240649, 0.21611721611721613
1504618568.2459686, 0.20146520146520147
1504618568.2512696, 0.18681318681318682
1504618568.2565813, 0.20634920634920634
1504618568.2618973, 0.20512820512820512
1504618568.2671978, 0.1855921855921856
1504618568.272495, 0.1855921855921856
1504618568.2777967, 0.20879120879120877
1504618568.2831066, 0.2039072039072039
1504618568.2884247, 0.17948717948717946
1504618568.2937272, 0.18315018315018317
1504618568.29903, 0.21123321123321126
1504618568.30433, 0.20634920634920634
1504618568.3096476, 0.19413919413919414
1504618568.314951, 0.21001221001221004
1504618568.3202498, 0.22100122100122102
1504618568.3255482, 0.2148962148962149
1504618568.3308475, 0.2039072039072039
1504618568.336175, 0.24175824175824176
1504618568.341513, 0.25518925518925517
1504618568.3468168, 0.23931623931623933
1504618568.3521183, 0.22954822954822957
1504618568.3574357, 0.2564102564102564
1504618568.3628156, 0.2442002442002442
1504618568.3681166, 0.21123321123321126
1504618568.3734188, 0.20879120879120877
1504618568.3787153, 0.20512820512820512
1504618568.3840199, 0.19413919413919414
1504618568.3893368, 0.16727716727716727
1504618568.3946364, 0.1758241758241758
1504618568.3999379, 0.18925518925518925
1504618568.4052541, 0.18070818070818073
1504618568.4105675, 0.15995115995115994
1504618568.415869, 0.1758241758241758
1504618568.4211848, 0.18925518925518925
1504618568.4264843, 0.17094017094017094
1504618568.431781, 0.16727716727716727
1504618568.4371386, 0.18681318681318682
1504618568.4424527, 0.1623931623931624
1504618568.447754, 0.15873015873015872
1504618568.4530911, 0.2600732600732601
1504618568.458406, 0.47374847374847373
1504618568.46371, 0.7301587301587302
1504618568.469026, 0.9548229548229548
1504618568.4743285, 1.0451770451770452
1504618568.4796286, 0.8766788766788767
1504618568.484954, 0.5213675213675214
1504618568.490266, 0.32967032967032966
1504618568.4955683, 0.3162393162393162
1504618568.5008862, 0.3211233211233211
1504618568.5061905, 0.30036630036630035
1504618568.5115075, 0.2783882783882784
1504618568.5168278, 0.2869352869352869
1504618568.522127, 0.2783882783882784
1504618568.5274305, 0.25274725274725274
1504618568.532842, 0.25274725274725274
1504618568.538193, 0.2698412698412699
1504618568.543507, 0.2588522588522589
1504618568.548857, 0.24297924297924298
1504618568.5541646, 0.25274725274725274
1504618568.5594776, 0.27472527472527475
1504618568.564788, 0.2673992673992674
1504618568.570089, 0.2515262515262515
1504618568.5753899, 0.2796092796092796
1504618568.58069, 0.2869352869352869
1504618568.585999, 0.2905982905982906
1504618568.591305, 0.28205128205128205
1504618568.5966072, 0.2967032967032967
1504618568.601914, 0.31135531135531136
1504618568.6072154, 0.29914529914529914
1504618568.61253, 0.3052503052503052
1504618568.6178348, 0.33577533577533575
1504618568.6231487, 0.33699633699633696
1504618568.6284463, 0.3247863247863248
1504618568.6337461, 0.3418803418803419
1504618568.6391344, 0.3785103785103785
1504618568.6444812, 0.36996336996337
1504618568.6497827, 0.35531135531135527
1504618568.6551104, 0.38461538461538464
1504618568.6604276, 0.4078144078144078
1504618568.6657321, 0.39926739926739924
1504618568.6710556, 0.3956043956043956
1504618568.6763585, 0.41880341880341876
1504618568.6816566, 0.4346764346764347
1504618568.6870008, 0.4371184371184371
1504618568.692305, 0.41880341880341876
1504618568.697607, 0.4456654456654457
1504618568.7030241, 0.4456654456654457
1504618568.7083383, 0.4358974358974359
1504618568.7136433, 0.43833943833943834
1504618568.7189708, 0.45054945054945056
1504618568.7242763, 0.43345543345543347
1504618568.7295737, 0.4053724053724054
1504618568.7348871, 0.4017094017094017
1504618568.7402368, 0.39438339438339437
1504618568.7455451, 0.36752136752136755
1504618568.7508554, 0.32234432234432236
1504618568.7561545, 0.32234432234432236
1504618568.7614715, 0.30647130647130644
1504618568.7667768, 0.2796092796092796
1504618568.7720776, 0.2515262515262515
1504618568.7773783, 0.2564102564102564
1504618568.7826736, 0.2442002442002442
1504618568.787987, 0.22100122100122102
1504618568.7933054, 0.21855921855921856
1504618568.798603, 0.23687423687423687
1504618568.8039167, 0.23321123321123322
1504618568.8092506, 0.2039072039072039
1504618568.814555, 0.22100122100122102
1504618568.8198533, 0.2454212454212454
1504618568.8251717, 0.22954822954822957
1504618568.8304698, 0.2197802197802198
1504618568.8357704, 0.23687423687423687
1504618568.8411515, 0.24053724053724054
1504618568.8464587, 0.23321123321123322
1504618568.851756, 0.22466422466422467
1504618568.8570635, 0.2442002442002442
1504618568.8623912, 0.24297924297924298
1504618568.8676956, 0.2271062271062271
1504618568.8730195, 0.23076923076923078
1504618568.878327, 0.24786324786324784
1504618568.8836324, 0.24297924297924298
1504618568.8889658, 0.22466422466422467
1504618568.894286, 0.23076923076923078
1504618568.899584, 0.2490842490842491
1504618568.904909, 0.23321123321123322
1504618568.9102414, 0.2136752136752137
1504618568.915549, 0.23321123321123322
1504618568.9208636, 0.23565323565323565
1504618568.9261827, 0.22344322344322345
1504618568.931481, 0.20757020757020755
1504618568.936782, 0.22954822954822957
1504618568.9421618, 0.23565323565323565
1504618568.9474823, 0.21001221001221004
1504618568.9528778, 0.2039072039072039
1504618568.958201, 0.22344322344322345
1504618568.963525, 0.21733821733821734
1504618568.968842, 0.19658119658119658
1504618568.9741607, 0.2039072039072039
1504618568.9794588, 0.22100122100122102
1504618568.984759, 0.21123321123321126
1504618568.9900913, 0.1904761904761905
1504618568.9953942, 0.2026862026862027
1504618569.0006943, 0.21245421245421248
1504618569.0060136, 0.19658119658119658
1504618569.011329, 0.1916971916971917
1504618569.0166373, 0.21123321123321126
1504618569.021954, 0.2197802197802198
1504618569.0272553, 0.21001221001221004
1504618569.032554, 0.21733821733821734
1504618569.037872, 0.23931623931623933
1504618569.0432196, 0.231990231990232
1504618569.0485222, 0.21733821733821734
1504618569.0538414, 0.23321123321123322
1504618569.0591447, 0.2673992673992674
1504618569.0644612, 0.2612942612942613
1504618569.0697615, 0.2442002442002442
1504618569.0750613, 0.25518925518925517
1504618569.0803595, 0.26495726495726496
1504618569.0856636, 0.24175824175824176
1504618569.0933084, 0.21611721611721613
1504618569.0986416, 0.21733821733821734
1504618569.1039462, 0.2026862026862027
1504618569.1092458, 0.1746031746031746
1504618569.1145556, 0.18192918192918195
1504618569.1198556, 0.199023199023199
1504618569.1251562, 0.18803418803418803
1504618569.130448, 0.17216117216117216
1504618569.1357477, 0.18315018315018317
1504618569.1410444, 0.19658119658119658
1504618569.1463885, 0.17948717948717946
1504618569.1516926, 0.17338217338217338
1504618569.1569908, 0.1855921855921856
1504618569.1622941, 0.1697191697191697
1504618569.1675978, 0.1623931623931624
1504618569.1729445, 0.2722832722832723
1504618569.178244, 0.4993894993894994
1504618569.1835456, 0.7606837606837606
1504618569.1888442, 1.0048840048840049
1504618569.1941679, 1.0683760683760684
1504618569.1994689, 0.9206349206349207
1504618569.2047734, 0.5531135531135531
1504618569.2101672, 0.38583638583638585
1504618569.2156577, 0.3516483516483516
1504618569.2209592, 0.34798534798534797
1504618569.226286, 0.3125763125763126
1504618569.2315857, 0.2893772893772894
1504618569.2368872, 0.29181929181929184
1504618569.2421818, 0.28205128205128205
1504618569.247537, 0.25396825396825395
1504618569.252908, 0.25274725274725274
1504618569.2582073, 0.26862026862026867
1504618569.2635155, 0.2612942612942613
1504618569.2688127, 0.2454212454212454
1504618569.2741106, 0.25518925518925517
1504618569.2794085, 0.2771672771672772
1504618569.2847128, 0.26862026862026867
1504618569.2900064, 0.25396825396825395
1504618569.2953222, 0.27350427350427353
1504618569.3006244, 0.2905982905982906
1504618569.3059213, 0.28327228327228327
1504618569.3112307, 0.27594627594627597
1504618569.316533, 0.3028083028083028
1504618569.3218336, 0.31135531135531136
1504618569.3271334, 0.30036630036630035
1504618569.3324304, 0.304029304029304
1504618569.3377266, 0.32722832722832723
1504618569.3430285, 0.3333333333333333
1504618569.3483632, 0.3211233211233211
1504618569.353666, 0.33455433455433453
1504618569.3589618, 0.3577533577533577
1504618569.3642786, 0.3626373626373627
1504618569.369578, 0.34676434676434675
1504618569.3748791, 0.36996336996337
1504618569.3801775, 0.3894993894993895
1504618569.3854766, 0.38705738705738707
1504618569.390773, 0.3785103785103785
1504618569.3960845, 0.4004884004884005
1504618569.401383, 0.4139194139194139
1504618569.40668, 0.39926739926739924
1504618569.4119883, 0.398046398046398
1504618569.4172893, 0.4212454212454213
1504618569.4225862, 0.41758241758241754
1504618569.4278827, 0.4004884004884005
1504618569.4331794, 0.4004884004884005
1504618569.4384754, 0.41880341880341876
1504618569.4437747, 0.4065934065934066
1504618569.449107, 0.3821733821733822
1504618569.4544098, 0.3772893772893773
1504618569.4597063, 0.37606837606837606
1504618569.465019, 0.3492063492063492
1504618569.4703205, 0.31013431013431014
1504618569.4756193, 0.3076923076923077
1504618569.4809186, 0.30158730158730157
1504618569.48622, 0.2722832722832723
1504618569.4915133, 0.24786324786324784
1504618569.496839, 0.2564102564102564
1504618569.5021393, 0.2515262515262515
1504618569.5074372, 0.22466422466422467
1504618569.51281, 0.22100122100122102
1504618569.518111, 0.24053724053724054
1504618569.5234115, 0.23443223443223443
1504618569.5287066, 0.21611721611721613
1504618569.5340095, 0.2258852258852259
1504618569.5393038, 0.2454212454212454
1504618569.5446024, 0.23809523809523808
1504618569.5499547, 0.22222222222222224
1504618569.5552583, 0.23565323565323565
1504618569.5605586, 0.25274725274725274
1504618569.565867, 0.23809523809523808
1504618569.5711675, 0.2271062271062271
1504618569.5764635, 0.2442002442002442
1504618569.5817604, 0.25274725274725274
1504618569.5870545, 0.23443223443223443
1504618569.5923512, 0.23076923076923078
1504618569.5976672, 0.2515262515262515
1504618569.602976, 0.24786324786324784
1504618569.608274, 0.22832722832722832
1504618569.6135938, 0.23076923076923078
1504618569.6188943, 0.2515262515262515
1504618569.624192, 0.24053724053724054
1504618569.6294887, 0.22100122100122102
1504618569.6347873, 0.23076923076923078
1504618569.6400788, 0.24297924297924298
1504618569.645386, 0.23321123321123322
1504618569.6507237, 0.21245421245421248
1504618569.6560297, 0.22832722832722832
1504618569.661325, 0.23565323565323565
1504618569.6666346, 0.21733821733821734
1504618569.6719346, 0.20757020757020755
1504618569.6772342, 0.2271062271062271
1504618569.6825304, 0.2271062271062271
1504618569.6878283, 0.2039072039072039
1504618569.693132, 0.20757020757020755
1504618569.6984446, 0.22466422466422467
1504618569.7037423, 0.2197802197802198
1504618569.709036, 0.19658119658119658
1504618569.714348, 0.20634920634920634
1504618569.7196486, 0.22222222222222224
1504618569.7249532, 0.21123321123321126
1504618569.7302542, 0.19413919413919414
1504618569.735553, 0.20879120879120877
1504618569.7408442, 0.22100122100122102
1504618569.7461452, 0.2039072039072039
1504618569.7514827, 0.19413919413919414
1504618569.7567847, 0.21123321123321126
1504618569.7620816, 0.22100122100122102
1504618569.7673895, 0.20146520146520147
1504618569.7726893, 0.20757020757020755
1504618569.7779868, 0.23565323565323565
1504618569.7832837, 0.23687423687423687
1504618569.7885807, 0.22222222222222224
1504618569.793879, 0.23076923076923078
1504618569.7991943, 0.2576312576312576
1504618569.8045008, 0.2588522588522589
1504618569.8097975, 0.2515262515262515
1504618569.8151097, 0.2600732600732601
1504618569.8204124, 0.2722832722832723
1504618569.8257117, 0.2612942612942613
1504618569.8310065, 0.23687423687423687
1504618569.8363066, 0.24297924297924298
1504618569.8416042, 0.23321123321123322
1504618569.846905, 0.2039072039072039
1504618569.852237, 0.18803418803418803
1504618569.8575375, 0.20634920634920634
1504618569.8629026, 0.20757020757020755
1504618569.8682153, 0.17948717948717946
1504618569.873517, 0.18437118437118438
1504618569.8788142, 0.2039072039072039
1504618569.8841157, 0.19536019536019536
1504618569.8894124, 0.1746031746031746
1504618569.8947108, 0.18803418803418803
1504618569.9000566, 0.2026862026862027
1504618569.9053595, 0.18803418803418803
1504618569.9106529, 0.1562881562881563
1504618569.9159667, 0.199023199023199
1504618569.9212668, 0.3308913308913309
1504618569.9265661, 0.5177045177045178
1504618569.9318635, 0.7851037851037851
1504618569.9371629, 1.0561660561660562
1504618569.9424596, 1.1001221001221002
1504618569.9477634, 0.9194139194139195
1504618569.9531085, 0.5897435897435898
1504618569.9584124, 0.4652014652014652
1504618569.9637845, 0.41880341880341876
1504618569.9690888, 0.3589743589743589
1504618569.974387, 0.3382173382173382
1504618569.9796824, 0.32844932844932845
1504618569.9849842, 0.30158730158730157
1504618569.990277, 0.2698412698412699
1504618569.9955778, 0.2771672771672772
1504618570.0008936, 0.28327228327228327
1504618570.0061953, 0.26495726495726496
1504618570.0114908, 0.25518925518925517
1504618570.0168066, 0.2722832722832723
1504618570.022107, 0.2796092796092796
1504618570.027407, 0.2612942612942613
1504618570.0327024, 0.26373626373626374
1504618570.0380023, 0.2869352869352869
1504618570.0433083, 0.2869352869352869
1504618570.0486097, 0.2722832722832723
1504618570.0539382, 0.2796092796092796
1504618570.0592387, 0.3052503052503052
1504618570.0645463, 0.30158730158730157
1504618570.0698504, 0.2869352869352869
1504618570.075149, 0.304029304029304
1504618570.080445, 0.3247863247863248
1504618570.0857403, 0.31746031746031744
1504618570.0910366, 0.3089133089133089
1504618570.096334, 0.33455433455433453
1504618570.1016445, 0.34554334554334554
1504618570.1069415, 0.3382173382173382
1504618570.112237, 0.3394383394383394
1504618570.117553, 0.36874236874236876
1504618570.1229196, 0.37362637362637363
1504618570.128217, 0.3626373626373627
1504618570.1335142, 0.3724053724053724
1504618570.138811, 0.39926739926739924
1504618570.144109, 0.39926739926739924
1504618570.1494117, 0.3894993894993895
1504618570.154755, 0.40415140415140416
1504618570.1600566, 0.4212454212454213
1504618570.1653621, 0.4151404151404151
1504618570.170664, 0.398046398046398
1504618570.1759624, 0.4163614163614163
1504618570.1812596, 0.42612942612942617
1504618570.1865582, 0.409035409035409
1504618570.191852, 0.3956043956043956
1504618570.1971505, 0.4078144078144078
1504618570.2024608, 0.398046398046398
1504618570.207768, 0.36141636141636146
1504618570.2130675, 0.3431013431013431
1504618570.218383, 0.34554334554334554
1504618570.2236853, 0.3199023199023199
1504618570.228983, 0.2844932844932845
1504618570.2342806, 0.27594627594627597
1504618570.2395709, 0.28327228327228327
1504618570.2448695, 0.2600732600732601
1504618570.2501678, 0.23565323565323565
1504618570.2554991, 0.24053724053724054
1504618570.2607982, 0.24664224664224663
1504618570.2661064, 0.23076923076923078
1504618570.2714057, 0.21611721611721613
1504618570.2767034, 0.23809523809523808
1504618570.2819982, 0.24175824175824176
1504618570.2872956, 0.2258852258852259
1504618570.2925897, 0.22466422466422467
1504618570.2978861, 0.24664224664224663
1504618570.3032017, 0.2454212454212454
1504618570.3084998, 0.2258852258852259
1504618570.313795, 0.23565323565323565
1504618570.3191078, 0.25518925518925517
1504618570.324417, 0.2490842490842491
1504618570.329714, 0.23076923076923078
1504618570.335011, 0.2454212454212454
1504618570.3403063, 0.2600732600732601
1504618570.3456035, 0.24664224664224663
1504618570.3508997, 0.23443223443223443
1504618570.3562288, 0.2490842490842491
1504618570.361529, 0.2576312576312576
1504618570.3668354, 0.23809523809523808
1504618570.372137, 0.231990231990232
1504618570.3774364, 0.2503052503052503
1504618570.3828046, 0.2503052503052503
1504618570.3881035, 0.2271062271062271
1504618570.393406, 0.22832722832722832
1504618570.398703, 0.2490842490842491
1504618570.404027, 0.23931623931623933
1504618570.4093258, 0.21855921855921856
1504618570.414623, 0.2271062271062271
1504618570.4199362, 0.2442002442002442
1504618570.4252396, 0.23076923076923078
1504618570.4305367, 0.21245421245421248
1504618570.4358356, 0.2271062271062271
1504618570.4411306, 0.23565323565323565
1504618570.4464285, 0.2197802197802198
1504618570.4517286, 0.21245421245421248
1504618570.4570782, 0.22954822954822957
1504618570.4623795, 0.22954822954822957
1504618570.467683, 0.21001221001221004
1504618570.4729948, 0.21123321123321126
1504618570.4782913, 0.23076923076923078
1504618570.483594, 0.22466422466422467
1504618570.4888852, 0.20146520146520147
1504618570.4941847, 0.21245421245421248
1504618570.4994829, 0.22832722832722832
1504618570.5048015, 0.22100122100122102
1504618570.5101001, 0.20146520146520147
1504618570.5153966, 0.22100122100122102
1504618570.5207107, 0.24053724053724054
1504618570.5260177, 0.23443223443223443
1504618570.531316, 0.22832722832722832
1504618570.5366151, 0.2503052503052503
1504618570.5419116, 0.2600732600732601
1504618570.547209, 0.24664224664224663
1504618570.5525095, 0.2625152625152625
1504618570.557838, 0.2893772893772894
1504618570.563145, 0.28327228327228327
1504618570.56891, 0.2612942612942613
1504618570.574257, 0.2661782661782662
1504618570.5795808, 0.2869352869352869
1504618570.5848866, 0.2490842490842491
1504618570.590185, 0.2148962148962149
1504618570.5955527, 0.21611721611721613
1504618570.6008554, 0.21855921855921856
1504618570.6061773, 0.20146520146520147
1504618570.6114726, 0.18681318681318682
1504618570.6169126, 0.21733821733821734
1504618570.6222186, 0.20512820512820512
1504618570.62752, 0.19291819291819293
1504618570.6329026, 0.1904761904761905
1504618570.6382024, 0.2136752136752137
1504618570.6435065, 0.20634920634920634
1504618570.6488008, 0.18681318681318682
1504618570.6541288, 0.19291819291819293
1504618570.6594403, 0.1978021978021978
1504618570.6647425, 0.231990231990232
1504618570.6700523, 0.3589743589743589
1504618570.6753647, 0.6043956043956044
1504618570.6806643, 0.8864468864468865
1504618570.6859722, 1.0903540903540905
1504618570.6912692, 1.0586080586080586
1504618570.696568, 0.8681318681318682
1504618570.701864, 0.5628815628815629
1504618570.7071848, 0.4297924297924298
1504618570.71248, 0.3907203907203907
1504618570.7177894, 0.38583638583638585
1504618570.7231026, 0.3516483516483516
1504618570.7284014, 0.3076923076923077
1504618570.7337081, 0.29181929181929184
1504618570.7390027, 0.30158730158730157
1504618570.744302, 0.2857142857142857
1504618570.7495985, 0.2588522588522589
1504618570.754929, 0.2771672771672772
1504618570.7602425, 0.2844932844932845
1504618570.7655563, 0.2771672771672772
1504618570.7708614, 0.2600732600732601
1504618570.7761679, 0.28205128205128205
1504618570.7814631, 0.29426129426129427
1504618570.7867618, 0.28205128205128205
1504618570.7920566, 0.27472527472527475
1504618570.7973568, 0.30158730158730157
1504618570.8026528, 0.3076923076923077
1504618570.8079708, 0.3089133089133089
1504618570.813281, 0.3052503052503052
1504618570.8185887, 0.326007326007326
1504618570.823891, 0.32722832722832723
1504618570.8291855, 0.3247863247863248
1504618570.8344803, 0.3321123321123321
1504618570.8397758, 0.35531135531135527
1504618570.8450716, 0.3577533577533577
1504618570.8503656, 0.3577533577533577
1504618570.855695, 0.38583638583638585
1504618570.861005, 0.38583638583638585
1504618570.8663037, 0.3772893772893773
1504618570.87161, 0.37484737484737485
1504618570.876912, 0.40415140415140416
1504618570.8822103, 0.4139194139194139
1504618570.8875072, 0.4065934065934066
1504618570.8928478, 0.4346764346764347
1504618570.8981493, 0.46153846153846156
1504618570.903449, 0.44322344322344326
1504618570.908763, 0.4285714285714286
1504618570.9140608, 0.4407814407814408
1504618570.9193695, 0.4627594627594628
1504618570.9246798, 0.45665445665445664
1504618570.9299767, 0.4371184371184371
1504618570.9352746, 0.4774114774114774
1504618570.9405694, 0.4810744810744811
1504618570.9458659, 0.4358974358974359
1504618570.9511638, 0.4078144078144078
1504618570.95649, 0.4139194139194139
1504618570.9618182, 0.39194139194139194
1504618570.9671257, 0.3492063492063492
1504618570.9724305, 0.32722832722832723
1504618570.977733, 0.34676434676434675
1504618570.9830399, 0.31013431013431014
1504618570.9883308, 0.27350427350427353
1504618570.9936295, 0.26495726495726496
1504618570.9989297, 0.28205128205128205
1504618571.0042331, 0.2588522588522589
1504618571.0095468, 0.23809523809523808
1504618571.0148427, 0.2442002442002442
1504618571.020147, 0.27472527472527475
1504618571.0254524, 0.2490842490842491
1504618571.030753, 0.23321123321123322
1504618571.0360506, 0.2503052503052503
1504618571.041348, 0.2625152625152625
1504618571.0466442, 0.2442002442002442
1504618571.0519392, 0.23809523809523808
1504618571.0572631, 0.26862026862026867
1504618571.0625908, 0.27594627594627597
1504618571.0678928, 0.2490842490842491
1504618571.0732002, 0.2503052503052503
1504618571.0785005, 0.2698412698412699
1504618571.0838082, 0.2625152625152625
1504618571.0891037, 0.24297924297924298
1504618571.0944, 0.2564102564102564
1504618571.0996976, 0.2722832722832723
1504618571.1049957, 0.2625152625152625
1504618571.1103122, 0.23931623931623933
1504618571.115612, 0.2576312576312576
1504618571.1209214, 0.26862026862026867
1504618571.1262243, 0.2564102564102564
1504618571.133917, 0.24786324786324784
1504618571.1393595, 0.2722832722832723
1504618571.144735, 0.2503052503052503
1504618571.1500385, 0.22954822954822957
1504618571.1553335, 0.2442002442002442
1504618571.160674, 0.25274725274725274
1504618571.1659763, 0.24297924297924298
1504618571.1712842, 0.22222222222222224
1504618571.1765912, 0.2454212454212454
1504618571.1818893, 0.24786324786324784
1504618571.18719, 0.23076923076923078
1504618571.192481, 0.22100122100122102
1504618571.1977768, 0.2454212454212454
1504618571.2030785, 0.23565323565323565
1504618571.2083952, 0.21733821733821734
1504618571.2137048, 0.22344322344322345
1504618571.2189975, 0.2442002442002442
1504618571.224312, 0.23321123321123322
1504618571.2296147, 0.2136752136752137
1504618571.234914, 0.22344322344322345
1504618571.2402062, 0.24297924297924298
1504618571.2455065, 0.22466422466422467
1504618571.2508361, 0.2136752136752137
1504618571.2561347, 0.22466422466422467
1504618571.261473, 0.24053724053724054
1504618571.2667768, 0.21855921855921856
1504618571.272083, 0.21123321123321126
1504618571.2773836, 0.23443223443223443
1504618571.2826772, 0.24053724053724054
1504618571.2879763, 0.231990231990232
1504618571.2932763, 0.23443223443223443
1504618571.2985723, 0.2564102564102564
1504618571.3038697, 0.24664224664224663
1504618571.3091826, 0.231990231990232
1504618571.3144817, 0.2661782661782662
1504618571.3198242, 0.29426129426129427
1504618571.325141, 0.2771672771672772
1504618571.3304403, 0.2600732600732601
1504618571.335739, 0.2771672771672772
1504618571.3410335, 0.2796092796092796
1504618571.346332, 0.24786324786324784
1504618571.3516273, 0.22222222222222224
1504618571.356923, 0.22954822954822957
1504618571.3622677, 0.22344322344322345
1504618571.3675702, 0.20146520146520147
1504618571.3729548, 0.2039072039072039
1504618571.3782594, 0.22832722832722832
1504618571.3835566, 0.21611721611721613
1504618571.388852, 0.1904761904761905
1504618571.394148, 0.2026862026862027
1504618571.3994427, 0.22100122100122102
1504618571.404745, 0.21123321123321126
1504618571.4100564, 0.1978021978021978
1504618571.4153543, 0.20757020757020755
1504618571.4208205, 0.21001221001221004
1504618571.426126, 0.2136752136752137
1504618571.4314237, 0.3162393162393162
1504618571.4367251, 0.5445665445665446
1504618571.44202, 0.8070818070818071
1504618571.447318, 1.0244200244200243
1504618571.4526174, 1.0537240537240538
1504618571.4579134, 0.8717948717948718
1504618571.463252, 0.5079365079365079
1504618571.4685488, 0.36141636141636146
1504618571.473856, 0.3382173382173382
1504618571.479156, 0.3638583638583639
1504618571.4844608, 0.34676434676434675
1504618571.4897542, 0.3076923076923077
1504618571.495056, 0.31135531135531136
1504618571.5003486, 0.3125763125763126
1504618571.505646, 0.29426129426129427
1504618571.510963, 0.2722832722832723
1504618571.516261, 0.29304029304029305
1504618571.5215678, 0.30036630036630035
1504618571.5268712, 0.28083028083028083
1504618571.5321686, 0.28083028083028083
1504618571.5374694, 0.3052503052503052
1504618571.5428395, 0.31135531135531136
1504618571.5481372, 0.2905982905982906
1504618571.553434, 0.2979242979242979
1504618571.5587287, 0.3211233211233211
1504618571.5640752, 0.32234432234432236
1504618571.5693784, 0.3076923076923077
1504618571.5746849, 0.31868131868131866
1504618571.5799866, 0.3504273504273504
1504618571.5852869, 0.3406593406593406
1504618571.5905814, 0.33577533577533575
1504618571.595877, 0.35286935286935284
1504618571.601173, 0.36630036630036633
1504618571.6064713, 0.36874236874236876
1504618571.611783, 0.3638583638583639
1504618571.617081, 0.39316239316239315
1504618571.6223848, 0.4004884004884005
1504618571.627688, 0.3894993894993895
1504618571.6329925, 0.4053724053724054
1504618571.6382878, 0.43101343101343104
1504618571.6435893, 0.4358974358974359
1504618571.6488855, 0.42368742368742374
1504618571.6541853, 0.44322344322344326
1504618571.6594818, 0.4652014652014652
1504618571.6648247, 0.463980463980464
1504618571.670124, 0.45054945054945056
1504618571.6754315, 0.4725274725274725
1504618571.680733, 0.5018315018315018
1504618571.686033, 0.4713064713064713
1504618571.6913316, 0.46764346764346765
1504618571.6966295, 0.47619047619047616
1504618571.701925, 0.4774114774114774
1504618571.707223, 0.4517704517704518
1504618571.7125356, 0.4285714285714286
1504618571.717834, 0.4358974358974359
1504618571.7232642, 0.41758241758241754
1504618571.7285678, 0.3650793650793651
1504618571.7338738, 0.3492063492063492
1504618571.739166, 0.34798534798534797
1504618571.7444649, 0.3211233211233211
1504618571.7497635, 0.28083028083028083
1504618571.7550623, 0.2771672771672772
1504618571.7603571, 0.28327228327228327
1504618571.7656982, 0.26373626373626374
1504618571.7710009, 0.24297924297924298
1504618571.776309, 0.2576312576312576
1504618571.781608, 0.26495726495726496
1504618571.7869072, 0.24664224664224663
1504618571.7922027, 0.24053724053724054
1504618571.7975485, 0.26373626373626374
1504618571.8029149, 0.2661782661782662
1504618571.808213, 0.24786324786324784
1504618571.8135266, 0.2503052503052503
1504618571.818827, 0.2722832722832723
1504618571.82414, 0.2673992673992674
1504618571.8294373, 0.24664224664224663
1504618571.8347385, 0.2612942612942613
1504618571.840034, 0.27594627594627597
1504618571.8453321, 0.2661782661782662
1504618571.8506262, 0.2503052503052503
1504618571.8559225, 0.2698412698412699
1504618571.861217, 0.2783882783882784
1504618571.866622, 0.2612942612942613
1504618571.8719234, 0.25396825396825395
1504618571.8772287, 0.27350427350427353
1504618571.8825293, 0.2722832722832723
1504618571.8878279, 0.2490842490842491
1504618571.8931267, 0.24786324786324784
1504618571.8984218, 0.26862026862026867
1504618571.9037194, 0.26495726495726496
1504618571.9090128, 0.23931623931623933
1504618571.9143293, 0.24053724053724054
1504618571.9196255, 0.2588522588522589
1504618571.9249644, 0.24786324786324784
1504618571.9302678, 0.2271062271062271
1504618571.9355688, 0.24297924297924298
1504618571.9408667, 0.25274725274725274
1504618571.9461634, 0.23809523809523808
1504618571.9514594, 0.22222222222222224
1504618571.9567568, 0.24175824175824176
1504618571.9620528, 0.24297924297924298
1504618571.9674168, 0.22832722832722832
1504618571.9728029, 0.22222222222222224
1504618571.9781141, 0.24053724053724054
1504618571.9834151, 0.23809523809523808
1504618571.9887133, 0.2197802197802198
1504618571.9940119, 0.22954822954822957
1504618571.9993095, 0.24297924297924298
1504618572.0046146, 0.23321123321123322
1504618572.0099118, 0.21245421245421248
1504618572.0152328, 0.2258852258852259
1504618572.0205288, 0.23931623931623933
1504618572.0258358, 0.2271062271062271
1504618572.0311353, 0.21855921855921856
1504618572.0364351, 0.24053724053724054
1504618572.041732, 0.2503052503052503
1504618572.047027, 0.23443223443223443
1504618572.0523207, 0.23687423687423687
1504618572.0576174, 0.2588522588522589
1504618572.062978, 0.2588522588522589
1504618572.0683148, 0.2454212454212454
1504618572.0736804, 0.2698412698412699
1504618572.079173, 0.29426129426129427
1504618572.0844839, 0.2796092796092796
1504618572.0897837, 0.2625152625152625
1504618572.0951612, 0.27350427350427353
1504618572.1004639, 0.28083028083028083
1504618572.1057649, 0.2515262515262515
1504618572.1110606, 0.2258852258852259
1504618572.1163762, 0.231990231990232
1504618572.1216683, 0.22954822954822957
1504618572.1269772, 0.21123321123321126
1504618572.1322768, 0.20146520146520147
1504618572.1375809, 0.22222222222222224
1504618572.142965, 0.22100122100122102
1504618572.1482637, 0.20146520146520147
1504618572.1535618, 0.20757020757020755
1504618572.1588576, 0.2258852258852259
1504618572.1641624, 0.22100122100122102
1504618572.1695096, 0.199023199023199
1504618572.1748207, 0.20024420024420025
1504618572.1801188, 0.1978021978021978
1504618572.1854174, 0.2271062271062271
1504618572.1907194, 0.3492063492063492
1504618572.1960201, 0.6092796092796092
1504618572.2013152, 0.8998778998778999
1504618572.2066152, 1.1172161172161172
1504618572.2119124, 1.0708180708180708
1504618572.2172277, 0.8461538461538463
1504618572.2225266, 0.5164835164835164
1504618572.2278352, 0.39926739926739924
1504618572.2331355, 0.3724053724053724
1504618572.238429, 0.3772893772893773
1504618572.2437253, 0.3516483516483516
1504618572.249027, 0.31135531135531136
1504618572.2543266, 0.3089133089133089
1504618572.2596219, 0.3162393162393162
1504618572.2649248, 0.30158730158730157
1504618572.2702796, 0.27350427350427353
1504618572.275593, 0.2893772893772894
1504618572.2808895, 0.30036630036630035
1504618572.2861948, 0.2869352869352869
1504618572.2914934, 0.2783882783882784
1504618572.2967932, 0.29914529914529914
1504618572.302097, 0.31135531135531136
1504618572.3074026, 0.29181929181929184
1504618572.3126993, 0.2954822954822955
1504618572.3180218, 0.31868131868131866
1504618572.3233194, 0.3199023199023199
1504618572.3286316, 0.30647130647130644
1504618572.333934, 0.31868131868131866
1504618572.3392322, 0.3443223443223443
1504618572.344531, 0.3406593406593406
1504618572.3498275, 0.32844932844932845
1504618572.3551245, 0.34676434676434675
1504618572.3604224, 0.36996336996337
1504618572.365727, 0.36752136752136755
1504618572.3710747, 0.35531135531135527
1504618572.3763883, 0.380952380952381
1504618572.3816872, 0.3968253968253968
1504618572.3869867, 0.38461538461538464
1504618572.392286, 0.38461538461538464
1504618572.3975842, 0.4151404151404151
1504618572.4029481, 0.4200244200244201
1504618572.4082441, 0.4053724053724054
1504618572.4135485, 0.41758241758241754
1504618572.4188657, 0.4371184371184371
1504618572.4241672, 0.43833943833943834
1504618572.429476, 0.41880341880341876
1504618572.4347777, 0.43345543345543347
1504618572.4400759, 0.44932844932844934
1504618572.4453747, 0.4371184371184371
1504618572.450671, 0.4200244200244201
1504618572.4559689, 0.43345543345543347
1504618572.4612632, 0.4395604395604396
1504618572.466564, 0.4224664224664225
1504618572.4719071, 0.39438339438339437
1504618572.4772227, 0.398046398046398
1504618572.4825234, 0.380952380952381
1504618572.487821, 0.3418803418803419
1504618572.4931207, 0.32722832722832723
1504618572.498416, 0.32844932844932845
1504618572.5037153, 0.3076923076923077
1504618572.5090098, 0.27350427350427353
1504618572.5143104, 0.2722832722832723
1504618572.5196245, 0.2771672771672772
1504618572.524933, 0.26495726495726496
1504618572.5302403, 0.23931623931623933
1504618572.53554, 0.25396825396825395
1504618572.5408385, 0.26373626373626374
1504618572.5461378, 0.25274725274725274
1504618572.5514317, 0.24053724053724054
1504618572.5567284, 0.26373626373626374
1504618572.5620239, 0.2698412698412699
1504618572.5673218, 0.25518925518925517
1504618572.5726645, 0.2515262515262515
1504618572.577978, 0.27350427350427353
1504618572.5832803, 0.2722832722832723
1504618572.5885756, 0.2503052503052503
1504618572.593874, 0.2600732600732601
1504618572.5992007, 0.2796092796092796
1504618572.6045077, 0.2710622710622711
1504618572.6098182, 0.2503052503052503
1504618572.615117, 0.26373626373626374
1504618572.6204278, 0.2783882783882784
1504618572.6257277, 0.26495726495726496
1504618572.6310325, 0.2515262515262515
1504618572.6363358, 0.2673992673992674
1504618572.6416347, 0.27350427350427353
1504618572.6469328, 0.25518925518925517
1504618572.6522255, 0.24786324786324784
1504618572.6575248, 0.2673992673992674
1504618572.6628659, 0.26373626373626374
1504618572.6681664, 0.24786324786324784
1504618572.6735108, 0.24297924297924298
1504618572.6788268, 0.2625152625152625
1504618572.6841354, 0.25274725274725274
1504618572.689434, 0.231990231990232
1504618572.694732, 0.24053724053724054
1504618572.7000256, 0.25518925518925517
1504618572.705324, 0.24297924297924298
1504618572.7106214, 0.22344322344322345
1504618572.7159162, 0.23931623931623933
1504618572.7212257, 0.24664224664224663
1504618572.7265704, 0.231990231990232
1504618572.7318766, 0.22100122100122102
1504618572.7371795, 0.24297924297924298
1504618572.742475, 0.24297924297924298
1504618572.7477736, 0.22222222222222224
1504618572.7530737, 0.22344322344322345
1504618572.7583685, 0.24175824175824176
1504618572.7636704, 0.23687423687423687
1504618572.7689686, 0.21733821733821734
1504618572.7743104, 0.22466422466422467
1504618572.7796226, 0.24053724053724054
1504618572.7849224, 0.23076923076923078
1504618572.79022, 0.21245421245421248
1504618572.7955186, 0.2258852258852259
1504618572.8008127, 0.24053724053724054
1504618572.8061075, 0.22466422466422467
1504618572.8114016, 0.21733821733821734
1504618572.8166988, 0.24297924297924298
1504618572.8220112, 0.2564102564102564
1504618572.827527, 0.24664224664224663
1504618572.8329, 0.2454212454212454
1504618572.8382013, 0.2722832722832723
1504618572.8435085, 0.2698412698412699
1504618572.8488066, 0.2625152625152625
1504618572.8541048, 0.28083028083028083
1504618572.8593988, 0.2979242979242979
1504618572.8646953, 0.2844932844932845
1504618572.8699896, 0.26495726495726496
1504618572.8753343, 0.26862026862026867
1504618572.8806508, 0.2698412698412699
1504618572.8859515, 0.24175824175824176
1504618572.8912482, 0.21245421245421248
1504618572.896548, 0.2258852258852259
1504618572.9018419, 0.22466422466422467
1504618572.9071376, 0.20634920634920634
1504618572.912433, 0.199023199023199
1504618572.9177294, 0.22100122100122102
1504618572.9230545, 0.21733821733821734
1504618572.9283633, 0.19658119658119658
1504618572.933666, 0.2039072039072039
1504618572.938964, 0.22344322344322345
1504618572.9442635, 0.21611721611721613
1504618572.9495585, 0.1904761904761905
1504618572.954855, 0.1916971916971917
1504618572.960148, 0.22466422466422467
1504618572.965446, 0.326007326007326
1504618572.9707446, 0.5067155067155067
1504618572.976082, 0.7912087912087912
1504618572.9814038, 1.065934065934066
1504618572.9867089, 1.1306471306471306
1504618572.9920015, 0.9633699633699634
1504618572.9973056, 0.6788766788766788
1504618573.0026026, 0.4993894993894994
1504618573.0079036, 0.42612942612942617
1504618573.0131998, 0.39194139194139194
1504618573.018495, 0.380952380952381
1504618573.023808, 0.34554334554334554
1504618573.0291202, 0.3052503052503052
1504618573.0344238, 0.30036630036630035
1504618573.0397208, 0.3076923076923077
1504618573.04502, 0.29426129426129427
1504618573.0503168, 0.2698412698412699
1504618573.0556145, 0.2844932844932845
1504618573.0609102, 0.29914529914529914
1504618573.0662062, 0.28327228327228327
1504618573.0715013, 0.27594627594627597
1504618573.0768325, 0.2967032967032967
1504618573.0821464, 0.3052503052503052
1504618573.0874476, 0.2881562881562882
1504618573.0928042, 0.2893772893772894
1504618573.0981019, 0.315018315018315
1504618573.1033988, 0.315018315018315
1504618573.1086943, 0.29914529914529914
1504618573.113995, 0.31135531135531136
1504618573.1192915, 0.3394383394383394
1504618573.1246107, 0.3321123321123321
1504618573.1299195, 0.3235653235653236
1504618573.1352212, 0.3406593406593406
1504618573.140516, 0.3626373626373627
1504618573.1458127, 0.3565323565323565
1504618573.1511078, 0.34798534798534797
1504618573.1564069, 0.37484737484737485
1504618573.1617043, 0.3882783882783883
1504618573.1670024, 0.3797313797313797
1504618573.1722977, 0.3821733821733822
1504618573.1776476, 0.4078144078144078
1504618573.1829748, 0.4163614163614163
1504618573.1882744, 0.39926739926739924
1504618573.1935718, 0.41147741147741146
1504618573.1988728, 0.4371184371184371
1504618573.2041764, 0.4358974358974359
1504618573.2094727, 0.41880341880341876
1504618573.214769, 0.43101343101343104
1504618573.2200644, 0.45054945054945056
1504618573.2253788, 0.4358974358974359
1504618573.2306936, 0.41880341880341876
1504618573.235994, 0.4346764346764347
1504618573.241287, 0.4395604395604396
1504618573.246589, 0.4163614163614163
1504618573.251887, 0.38705738705738707
1504618573.2571828, 0.3907203907203907
1504618573.262481, 0.36996336996337
1504618573.2677755, 0.3321123321123321
1504618573.2731094, 0.3162393162393162
1504618573.2784417, 0.3211233211233211
1504618573.2837732, 0.2979242979242979
1504618573.2890725, 0.26495726495726496
1504618573.2943707, 0.26373626373626374
1504618573.2996678, 0.27472527472527475
1504618573.3049676, 0.2612942612942613
1504618573.3102615, 0.23565323565323565
1504618573.31556, 0.2503052503052503
1504618573.3208523, 0.2600732600732601
1504618573.3261898, 0.24786324786324784
1504618573.3315027, 0.23565323565323565
1504618573.3368046, 0.2600732600732601
1504618573.3421035, 0.2625152625152625
1504618573.3474047, 0.2503052503052503
1504618573.3526995, 0.2454212454212454
1504618573.3579986, 0.2673992673992674
1504618573.3633025, 0.2661782661782662
1504618573.3685963, 0.2454212454212454
1504618573.3738966, 0.2564102564102564
1504618573.379227, 0.27350427350427353
1504618573.3845384, 0.26495726495726496
1504618573.3898377, 0.24786324786324784
1504618573.3951342, 0.2588522588522589
1504618573.4004297, 0.27472527472527475
1504618573.4057267, 0.2600732600732601
1504618573.411021, 0.2454212454212454
1504618573.4163194, 0.2625152625152625
1504618573.4216168, 0.2710622710622711
1504618573.426928, 0.2490842490842491
1504618573.4322436, 0.24175824175824176
1504618573.4375439, 0.26495726495726496
1504618573.4429111, 0.2600732600732601
1504618573.448212, 0.24297924297924298
1504618573.4535174, 0.24053724053724054
1504618573.4588156, 0.2625152625152625
1504618573.4641135, 0.2503052503052503
1504618573.4694097, 0.22954822954822957
1504618573.4747071, 0.24053724053724054
1504618573.4800382, 0.25518925518925517
1504618573.4853656, 0.24297924297924298
1504618573.4906628, 0.22344322344322345
1504618573.495962, 0.23931623931623933
1504618573.5012631, 0.24786324786324784
1504618573.5065625, 0.23076923076923078
1504618573.5118558, 0.2197802197802198
1504618573.5171535, 0.24175824175824176
1504618573.52245, 0.24175824175824176
1504618573.5277674, 0.21855921855921856
1504618573.5330906, 0.2197802197802198
1504618573.5383873, 0.23931623931623933
1504618573.5436823, 0.23443223443223443
1504618573.5489838, 0.2136752136752137
1504618573.5542848, 0.22222222222222224
1504618573.5595806, 0.24053724053724054
1504618573.564886, 0.231990231990232
1504618573.5701802, 0.21001221001221004
1504618573.5754764, 0.22466422466422467
1504618573.580864, 0.24175824175824176
1504618573.5863628, 0.22100122100122102
1504618573.5916646, 0.21245421245421248
1504618573.5970345, 0.23809523809523808
1504618573.6023514, 0.2515262515262515
1504618573.6076503, 0.23687423687423687
1504618573.6129959, 0.24297924297924298
1504618573.6182923, 0.2673992673992674
1504618573.623591, 0.2661782661782662
1504618573.6289067, 0.25274725274725274
1504618573.6342204, 0.2796092796092796
1504618573.63952, 0.30158730158730157
1504618573.6448197, 0.2857142857142857
1504618573.6501212, 0.2673992673992674
1504618573.6554236, 0.27594627594627597
1504618573.6607199, 0.27594627594627597
1504618573.666019, 0.24664224664224663
1504618573.6713133, 0.2148962148962149
1504618573.6766136, 0.22832722832722832
1504618573.6819487, 0.2271062271062271
1504618573.6872528, 0.20512820512820512
1504618573.6925485, 0.1978021978021978
1504618573.6978467, 0.2197802197802198
1504618573.703145, 0.21611721611721613
1504618573.7084422, 0.19291819291819293
1504618573.7137394, 0.20146520146520147
1504618573.7190335, 0.2197802197802198
1504618573.7243383, 0.2136752136752137
1504618573.729652, 0.18925518925518925
1504618573.7349625, 0.19536019536019536
1504618573.7402577, 0.20634920634920634
1504618573.7455552, 0.2490842490842491
1504618573.7508519, 0.38583638583638585
1504618573.7561536, 0.6434676434676434
1504618573.7614524, 0.9304029304029304
1504618573.7667542, 1.126984126984127
1504618573.7720506, 1.0586080586080586
1504618573.7773516, 0.8571428571428572
1504618573.782696, 0.557997557997558
1504618573.7880023, 0.44322344322344326
1504618573.7933018, 0.40415140415140416
1504618573.7985942, 0.39438339438339437
1504618573.8039017, 0.3577533577533577
1504618573.8092027, 0.3089133089133089
1504618573.814506, 0.30158730158730157
1504618573.819804, 0.3076923076923077
1504618573.8251035, 0.2893772893772894
1504618573.8304203, 0.26495726495726496
1504618573.835732, 0.2783882783882784
1504618573.8410318, 0.2893772893772894
1504618573.8463297, 0.27472527472527475
1504618573.8516266, 0.2661782661782662
1504618573.8569276, 0.2893772893772894
1504618573.8622234, 0.29426129426129427
1504618573.867522, 0.2771672771672772
1504618573.8728912, 0.28205128205128205
1504618573.878195, 0.3089133089133089
1504618573.8835459, 0.3052503052503052
1504618573.888847, 0.2893772893772894
1504618573.8941455, 0.3028083028083028
1504618573.8994405, 0.32722832722832723
1504618573.9047427, 0.3199023199023199
1504618573.91004, 0.3089133089133089
1504618573.9153378, 0.32844932844932845
1504618573.920635, 0.3492063492063492
1504618573.9259305, 0.3418803418803419
1504618573.931244, 0.3333333333333333
1504618573.936556, 0.3626373626373627
1504618573.9418552, 0.37484737484737485
1504618573.9471862, 0.3638583638583639
1504618573.952483, 0.36630036630036633
1504618573.957784, 0.39316239316239315
1504618573.9630892, 0.39926739926739924
1504618573.9683852, 0.3833943833943834
1504618573.9736826, 0.398046398046398
1504618573.978983, 0.42612942612942617
1504618573.984323, 0.4212454212454213
1504618573.9896219, 0.40415140415140416
1504618573.9949226, 0.4212454212454213
1504618574.0002193, 0.4395604395604396
1504618574.005523, 0.4273504273504274
1504618574.010817, 0.4151404151404151
1504618574.016115, 0.43223443223443225
1504618574.021412, 0.43833943833943834
1504618574.0267107, 0.4139194139194139
1504618574.0320282, 0.3894993894993895
1504618574.0373397, 0.39926739926739924
1504618574.0426385, 0.37606837606837606
1504618574.0479367, 0.33699633699633696
1504618574.053233, 0.31868131868131866
1504618574.0585287, 0.3235653235653236
1504618574.063829, 0.29914529914529914
1504618574.0691257, 0.2661782661782662
1504618574.0744233, 0.26495726495726496
1504618574.079723, 0.27472527472527475
1504618574.0850716, 0.25518925518925517
1504618574.0903745, 0.22832722832722832
1504618574.0956707, 0.2442002442002442
1504618574.100968, 0.25274725274725274
1504618574.1062677, 0.23931623931623933
1504618574.1115658, 0.22832722832722832
1504618574.1168618, 0.25396825396825395
1504618574.1221564, 0.25518925518925517
1504618574.1274529, 0.24053724053724054
1504618574.132849, 0.23809523809523808
1504618574.1381602, 0.2600732600732601
1504618574.1434617, 0.2564102564102564
1504618574.1487565, 0.23565323565323565
1504618574.1540558, 0.24786324786324784
1504618574.159355, 0.26862026862026867
1504618574.1646585, 0.2600732600732601
1504618574.1699524, 0.23931623931623933
1504618574.1752503, 0.2515262515262515
1504618574.18055, 0.2710622710622711
1504618574.1858835, 0.2515262515262515
1504618574.191182, 0.23931623931623933
1504618574.1964805, 0.2564102564102564
1504618574.2017782, 0.2625152625152625
1504618574.2070792, 0.24175824175824176
1504618574.212376, 0.23809523809523808
1504618574.2176733, 0.25518925518925517
1504618574.2229757, 0.2503052503052503
1504618574.2282722, 0.22954822954822957
1504618574.2335885, 0.231990231990232
1504618574.2388983, 0.25274725274725274
1504618574.244199, 0.24175824175824176
1504618574.2494972, 0.22222222222222224
1504618574.2547958, 0.22954822954822957
1504618574.2600932, 0.24786324786324784
1504618574.2653925, 0.23321123321123322
1504618574.2706873, 0.2148962148962149
1504618574.2759886, 0.22832722832722832
1504618574.2812865, 0.23931623931623933
1504618574.2866235, 0.2197802197802198
1504618574.2919266, 0.21245421245421248
1504618574.2972279, 0.23321123321123322
1504618574.3025262, 0.231990231990232
1504618574.3078272, 0.21123321123321126
1504618574.313126, 0.21245421245421248
1504618574.3184228, 0.23076923076923078
1504618574.3237252, 0.2258852258852259
1504618574.3290195, 0.20634920634920634
1504618574.3343832, 0.21611721611721613
1504618574.339693, 0.23076923076923078
1504618574.344998, 0.2197802197802198
1504618574.3502936, 0.20024420024420025
1504618574.3555894, 0.2148962148962149
1504618574.3608847, 0.2271062271062271
1504618574.3661895, 0.2136752136752137
1504618574.3714871, 0.20634920634920634
1504618574.3767853, 0.23076923076923078
1504618574.3820846, 0.24297924297924298
1504618574.3874207, 0.2258852258852259
1504618574.3927805, 0.22954822954822957
1504618574.3980834, 0.2490842490842491
1504618574.4033873, 0.2503052503052503
1504618574.408685, 0.24053724053724054
1504618574.4139907, 0.26495726495726496
1504618574.4192872, 0.2893772893772894
1504618574.4245846, 0.2796092796092796
1504618574.42988, 0.2564102564102564
1504618574.435383, 0.26373626373626374
1504618574.440683, 0.26373626373626374
1504618574.4459877, 0.23443223443223443
1504618574.4512854, 0.2039072039072039
1504618574.4565818, 0.2148962148962149
1504618574.4618819, 0.2136752136752137
1504618574.4671829, 0.19413919413919414
1504618574.4724789, 0.18803418803418803
1504618574.4777777, 0.21245421245421248
1504618574.4830782, 0.21611721611721613
1504618574.4884045, 0.18925518925518925
1504618574.4937086, 0.1916971916971917
1504618574.4990072, 0.21123321123321126
1504618574.5043042, 0.20634920634920634
1504618574.5096014, 0.18192918192918195
1504618574.5148995, 0.18437118437118438
1504618574.5201955, 0.1916971916971917
1504618574.5254993, 0.23809523809523808
1504618574.530797, 0.37484737484737485
1504618574.536127, 0.6422466422466422
1504618574.5414305, 0.9023199023199023
1504618574.5467317, 1.0586080586080586
1504618574.5520282, 0.9548229548229548
1504618574.5573282, 0.6923076923076923
1504618574.5626304, 0.41880341880341876
1504618574.5679257, 0.33699633699633696
1504618574.57323, 0.3308913308913309
1504618574.5785267, 0.3492063492063492
1504618574.583827, 0.33455433455433453
1504618574.5891573, 0.29426129426129427
1504618574.5944593, 0.29426129426129427
1504618574.599759, 0.3052503052503052
1504618574.6050613, 0.28327228327228327
1504618574.6103606, 0.2625152625152625
1504618574.6156576, 0.2783882783882784
1504618574.620988, 0.2905982905982906
1504618574.6262891, 0.2771672771672772
1504618574.6315851, 0.26495726495726496
1504618574.6369166, 0.2881562881562882
1504618574.6422188, 0.29426129426129427
1504618574.6475163, 0.2796092796092796
1504618574.6528769, 0.2857142857142857
1504618574.6581783, 0.31135531135531136
1504618574.6634796, 0.315018315018315
1504618574.6687782, 0.30036630036630035
1504618574.6740735, 0.3137973137973138
1504618574.679367, 0.33699633699633696
1504618574.6846693, 0.3406593406593406
1504618574.6900182, 0.3235653235653236
1504618574.695324, 0.3406593406593406
1504618574.700622, 0.3650793650793651
1504618574.7059186, 0.3565323565323565
1504618574.711216, 0.3589743589743589
1504618574.7165155, 0.3882783882783883
1504618574.7218122, 0.39926739926739924
1504618574.727109, 0.39316239316239315
1504618574.7324038, 0.3968253968253968
1504618574.7377288, 0.42490842490842495
1504618574.743028, 0.4358974358974359
1504618574.7483258, 0.4212454212454213
1504618574.7536254, 0.43833943833943834
1504618574.7589228, 0.463980463980464
1504618574.764234, 0.46764346764346765
1504618574.769529, 0.45054945054945056
1504618574.77483, 0.46764346764346765
1504618574.780128, 0.48717948717948717
1504618574.7854288, 0.48473748473748474
1504618574.790766, 0.45787545787545786
1504618574.7960696, 0.47496947496947495
1504618574.8013675, 0.4822954822954823
1504618574.8066685, 0.4481074481074481
1504618574.8119686, 0.42612942612942617
1504618574.817266, 0.4200244200244201
1504618574.822564, 0.39926739926739924
1504618574.8278623, 0.36019536019536014
1504618574.833158, 0.3321123321123321
1504618574.8384888, 0.33577533577533575
1504618574.8438077, 0.31135531135531136
1504618574.8491056, 0.26862026862026867
1504618574.8544025, 0.26862026862026867
1504618574.8596992, 0.27594627594627597
1504618574.8650029, 0.2576312576312576
1504618574.8702996, 0.23076923076923078
1504618574.875596, 0.2490842490842491
1504618574.8808908, 0.2564102564102564
1504618574.886191, 0.2454212454212454
1504618574.8915315, 0.23321123321123322
1504618574.8968327, 0.25518925518925517
1504618574.9021275, 0.2588522588522589
1504618574.907425, 0.2442002442002442
1504618574.9129126, 0.24297924297924298
1504618574.918228, 0.2673992673992674
1504618574.923555, 0.2673992673992674
1504618574.9288518, 0.24297924297924298
1504618574.9341521, 0.2503052503052503
1504618574.939489, 0.2722832722832723
1504618574.944794, 0.2612942612942613
1504618574.9500868, 0.24175824175824176
1504618574.9553869, 0.2576312576312576
1504618574.9606864, 0.2710622710622711
1504618574.9659886, 0.2490842490842491
1504618574.9712868, 0.24786324786324784
1504618574.9765866, 0.2625152625152625
1504618574.9818814, 0.26373626373626374
1504618574.9871838, 0.2442002442002442
1504618574.9925685, 0.24175824175824176
1504618574.9978826, 0.2612942612942613
1504618575.0031836, 0.2515262515262515
1504618575.0084815, 0.2271062271062271
1504618575.0137796, 0.24053724053724054
1504618575.0190768, 0.25518925518925517
1504618575.024376, 0.24297924297924298
1504618575.0296717, 0.22222222222222224
1504618575.0349705, 0.231990231990232
1504618575.0403056, 0.2490842490842491
1504618575.0456107, 0.2258852258852259
1504618575.0509098, 0.22344322344322345
1504618575.0562098, 0.231990231990232
1504618575.0615027, 0.23443223443223443
1504618575.0668035, 0.21855921855921856
1504618575.0720997, 0.21001221001221004
1504618575.0773993, 0.23076923076923078
1504618575.082696, 0.2271062271062271
1504618575.0880058, 0.2136752136752137
1504618575.093352, 0.2039072039072039
1504618575.0987277, 0.22466422466422467
1504618575.1040359, 0.21855921855921856
1504618575.1093335, 0.199023199023199
1504618575.1146305, 0.2148962148962149
1504618575.1199315, 0.23321123321123322
1504618575.1252332, 0.2271062271062271
1504618575.1305313, 0.20879120879120877
1504618575.1358292, 0.22954822954822957
1504618575.1411657, 0.24297924297924298
1504618575.146472, 0.22832722832722832
1504618575.151774, 0.23321123321123322
1504618575.157169, 0.2625152625152625
1504618575.1624708, 0.2722832722832723
1504618575.1677766, 0.2503052503052503
1504618575.1730733, 0.2490842490842491
1504618575.1783695, 0.26495726495726496
1504618575.1836662, 0.2564102564102564
1504618575.188995, 0.2271062271062271
1504618575.1943176, 0.2148962148962149
1504618575.1996176, 0.22100122100122102
1504618575.2049155, 0.20512820512820512
1504618575.210212, 0.18803418803418803
1504618575.2155082, 0.20146520146520147
1504618575.2208052, 0.22100122100122102
1504618575.2261035, 0.19291819291819293
1504618575.231399, 0.17948717948717946
1504618575.2366965, 0.20879120879120877
1504618575.242026, 0.20757020757020755
1504618575.247337, 0.18925518925518925
1504618575.252633, 0.1855921855921856
1504618575.25793, 0.20024420024420025
1504618575.2632291, 0.17704517704517703
1504618575.2685282, 0.1978021978021978
1504618575.273824, 0.3418803418803419
1504618575.2791216, 0.5970695970695971
1504618575.2844281, 0.8473748473748475
1504618575.289755, 1.0708180708180708
1504618575.2951102, 1.0244200244200243
1504618575.3004105, 0.7838827838827839
1504618575.305709, 0.43101343101343104
1504618575.311004, 0.33455433455433453
1504618575.316301, 0.33699633699633696
1504618575.3216012, 0.3443223443223443
1504618575.3268967, 0.31868131868131866
1504618575.3321924, 0.2979242979242979
1504618575.3374932, 0.30647130647130644
1504618575.342904, 0.29426129426129427
1504618575.3482122, 0.28205128205128205
1504618575.3535125, 0.2698412698412699
1504618575.3588102, 0.2881562881562882
1504618575.3641143, 0.28083028083028083
1504618575.3694108, 0.27350427350427353
1504618575.3747082, 0.2771672771672772
1504618575.3800058, 0.2967032967032967
1504618575.385304, 0.2869352869352869
1504618575.3906357, 0.2893772893772894
1504618575.3959584, 0.29914529914529914
1504618575.40125, 0.3137973137973138
1504618575.4065537, 0.3028083028083028
1504618575.4118528, 0.29426129426129427
1504618575.4171505, 0.32722832722832723
1504618575.4224505, 0.33577533577533575
1504618575.4277458, 0.31868131868131866
1504618575.4330435, 0.3394383394383394
1504618575.4383385, 0.3577533577533577
1504618575.4436958, 0.3589743589743589
1504618575.4489975, 0.3431013431013431
1504618575.4542954, 0.35531135531135527
1504618575.4595904, 0.39194139194139194
1504618575.464889, 0.38583638583638585
1504618575.470188, 0.37484737484737485
1504618575.479851, 0.41880341880341876
1504618575.4852722, 0.42612942612942617
1504618575.4906392, 0.4163614163614163
1504618575.495982, 0.43833943833943834
1504618575.501282, 0.4542124542124542
1504618575.506577, 0.4407814407814408
1504618575.5118704, 0.4371184371184371
1504618575.517167, 0.46153846153846156
1504618575.5224664, 0.4652014652014652
1504618575.5277674, 0.4456654456654457
1504618575.5330746, 0.4481074481074481
1504618575.538372, 0.46642246642246643
1504618575.5437243, 0.4542124542124542
1504618575.5490286, 0.4212454212454213
1504618575.554329, 0.4163614163614163
1504618575.5596247, 0.4151404151404151
1504618575.56493, 0.3833943833943834
1504618575.5702283, 0.34554334554334554
1504618575.5755281, 0.33577533577533575
1504618575.5808237, 0.32722832722832723
1504618575.5861223, 0.2954822954822955
1504618575.5914347, 0.26862026862026867
1504618575.5967872, 0.27350427350427353
1504618575.6020908, 0.2673992673992674
1504618575.6073902, 0.23809523809523808
1504618575.6126888, 0.231990231990232
1504618575.6179872, 0.2515262515262515
1504618575.6232862, 0.2454212454212454
1504618575.628585, 0.22344322344322345
1504618575.6338837, 0.231990231990232
1504618575.639179, 0.2564102564102564
1504618575.6445372, 0.24786324786324784
1504618575.6498408, 0.23076923076923078
1504618575.6551402, 0.24664224664224663
